2004-09-15 08:12:33,1,-9,-15,2,-14,4,-8,-10,-14,-6,-7,-4,-10,-17,-2,2,1,0,-2,7,3,-6,-11,-2,2,-10,-3,11,-2,7,13,-3,8,4,-4,-7,-12,-15,5,18,12,16,-8,14,-7,7,26,19,2,10,2,14,1,15,35,29,-4,23,14,16,7,2,15,15,13,24,16,26,6,44,16,18,34,20,20,39,20,19,38,40,15,13,14,25,20,30,24,21,47,32,34,24,15,30,52,30,50,58,28,38,26,45,50,42,24,33,49,35,33,38,54,52,41,28,49,46,46,34,57,60,46,61,47,51,45,44,44,46,62,52,51,52,58,58,52,55,42,55,62,52,65,56,58,68,57,62,61,51,57,45,49,52,40,49,48,38,48,50,53,50,53,48,42,50,47,51,45,58,59,50,52,55,49,37,46,46,49,29,51,44,54,42,48,41,41,61,50,62,37,46,29,41,25,31,42,20,36,39,56,28,36,38,40,47,40,38,19,32,40,46,44,34,43,47,33,44,18,47,33,36,37,37,48,62,29,28,32,39,58,51,59,62,52,39,50,48,60,65,57,49,63,55,69,66,64,58,62,79,71,67,63,67,57,55,64,58,57,59,72,64,56,53,45,73,53,59,49,47,34,60,46,40,33,43,44,36,46,31,28,32,18,28,31,26,26,23,31,34,23,25,21,29,35,35,11,44,24,29,35,34,28,18,22,30,26,36,30,31,40,28,32,22,11,29,21,34,36,36,42,43,17,25,24,32,19,34,43,69,111,158,197,246,307,329,370,407,403,436,439,416,404,392,362,309,284,266,210,170,138,97,85,77,63,53,50,27,24,33,32,14,16,11,10,5,4,-8,8,0,-5,-6,-10,1,-7,6,-8,-13,-10,-10,-4,4,4,-4,-6,-10,-5,-5,-9,-25,17,1,-7,4,-1,-3,-14,-5,3,-5,3,0,0,-3,1,12,-8,5,7,4,29,5,12,11,-3,8,3,10,11,29,22,31,9,8,20,16,22,16,19,22,24,33,30,13,13,19,25,10,21,14,10,8,18,6,43,11,22,15,24,25,20,36,24,37,40,30,18,39,31,31,28,35,30,32,35,35,28,23,57,24,43,30,45,31,34,26,27,32,48,46,42,40,44,46,41,51,34,40,48,42,45,45,55,50,47,55,33,65,58,33,65,42,SampleRate:500/TimeStamp(20)/TimeStamp(120)/TimeStamp(220)/Beep_Pulse(346)/TimeStamp(320)/TimeStamp(420)/HeartBeat_Dominant(333)
2004-09-15 08:12:34,59,74,43,40,57,52,62,64,52,57,65,67,56,54,60,79,62,54,64,54,69,62,50,57,56,50,67,51,57,53,55,58,56,42,48,50,58,41,60,43,63,58,66,50,48,68,55,62,68,63,54,67,48,56,56,58,56,59,55,55,61,56,61,60,41,56,54,34,53,57,52,45,34,49,68,50,42,34,37,47,29,55,63,46,49,42,46,30,34,42,41,38,56,21,33,41,28,59,55,50,40,51,33,36,43,64,47,49,66,44,50,56,49,47,58,50,61,62,47,58,61,65,64,61,62,78,56,89,78,72,71,58,56,53,62,62,45,58,67,61,67,62,67,42,54,65,56,52,54,53,42,39,16,36,44,50,46,36,36,47,32,46,33,15,32,30,26,24,17,40,22,33,35,37,31,23,30,20,54,45,33,47,22,35,41,38,41,24,51,35,38,34,34,55,25,37,39,41,44,23,33,12,35,20,7,43,67,72,104,143,187,244,300,340,388,396,425,426,440,440,430,401,369,322,293,251,193,166,144,129,87,66,50,49,53,41,28,25,31,42,12,19,7,-5,21,-4,12,-2,7,26,4,-2,2,-9,-6,15,-9,8,-1,-4,1,6,-12,3,-2,14,-1,7,-11,7,-2,20,3,-10,7,6,15,13,3,-10,18,12,9,18,-6,6,-3,18,2,10,9,21,26,3,15,28,6,7,22,10,-9,2,4,8,19,24,21,18,13,21,6,19,6,17,27,2,28,30,15,28,12,31,33,28,34,34,29,42,27,17,15,23,14,23,34,9,17,20,40,29,30,34,23,41,24,26,32,47,15,34,28,31,28,36,48,37,39,28,25,47,43,36,62,47,51,46,48,51,44,35,58,55,47,41,64,33,69,55,51,48,56,67,52,64,66,51,40,61,70,65,81,72,59,67,71,78,71,75,73,71,66,41,56,58,51,68,65,51,59,72,68,65,56,63,57,72,60,74,58,46,50,67,75,66,58,43,45,62,51,52,53,53,61,43,56,66,60,48,58,53,63,70,35,39,41,57,42,64,43,45,42,32,64,45,69,67,63,58,53,53,47,46,49,57,37,58,45,48,60,47,58,60,37,58,53,39,44,45,43,57,31,39,54,34,62,62,51,50,46,53,59,61,79,60,69,61,52,53,71,69,SampleRate:500/TimeStamp(20)/TimeStamp(120)/Beep_Pulse(226)/TimeStamp(220)/TimeStamp(320)/TimeStamp(420)/HeartBeat_Dominant(213)
2004-09-15 08:12:35,63,60,64,72,80,77,78,68,74,85,86,68,77,42,74,65,38,55,68,91,72,44,60,68,46,44,56,49,60,41,48,22,27,37,30,39,35,35,22,23,30,29,21,6,19,29,20,25,29,21,35,26,22,25,21,18,39,19,20,20,12,21,19,26,24,21,21,25,17,21,26,33,32,31,32,18,16,40,18,41,26,28,-7,0,28,29,52,73,93,146,194,243,304,344,362,421,429,439,449,437,421,412,378,326,290,233,201,176,145,102,101,75,64,48,54,44,55,25,35,16,0,-1,0,13,8,9,7,-4,5,17,3,-17,7,-21,-6,10,9,10,6,2,10,-1,12,-17,-13,-8,13,6,24,0,16,3,0,-11,6,3,8,-3,-1,2,1,9,23,7,7,23,9,21,3,15,2,18,21,-4,20,11,23,18,24,19,35,21,31,11,28,17,27,21,21,30,36,38,9,24,19,17,16,23,22,31,32,25,21,21,19,20,37,31,45,38,30,25,15,19,20,33,41,29,19,24,35,13,29,25,36,30,52,40,27,37,32,29,31,31,41,40,52,52,43,32,41,35,35,45,36,44,54,35,40,43,41,52,47,40,52,49,61,44,65,66,61,73,37,65,79,64,83,67,78,84,79,89,74,83,80,70,69,72,89,71,70,79,61,58,84,70,73,58,81,71,69,78,70,48,76,74,74,70,61,75,69,66,70,64,82,60,56,66,54,60,77,60,68,57,69,65,52,51,61,51,56,68,59,55,71,60,69,53,75,51,69,71,84,63,73,61,55,66,56,62,52,60,61,45,52,68,62,76,72,51,65,58,54,57,56,57,46,49,51,65,58,43,66,55,45,50,49,51,66,80,67,65,64,42,81,58,60,61,68,77,80,73,62,82,68,89,82,80,89,105,94,96,81,76,71,79,66,72,63,49,82,83,89,69,70,59,76,73,60,55,64,65,63,47,37,29,48,42,43,44,31,32,34,27,39,44,38,45,30,28,18,28,29,29,57,40,38,39,33,39,44,35,32,32,26,41,39,36,44,41,52,44,45,41,44,34,43,44,33,29,38,28,33,35,34,32,35,36,48,67,95,159,212,253,313,376,423,430,460,475,470,461,439,423,400,367,298,267,232,184,170,129,106,94,65,59,67,43,48,34,SampleRate:500/Beep_Pulse(106)/TimeStamp(20)/TimeStamp(120)/TimeStamp(220)/TimeStamp(320)/Beep_Pulse(488)/TimeStamp(420)/HeartBeat_Dominant(97)/HeartBeat_Dominant(471)
2004-09-15 08:12:36,35,36,14,16,12,20,-2,3,5,17,5,-6,10,7,-1,-3,7,12,-6,9,4,-1,-13,-1,6,16,3,-3,3,3,10,-8,7,-2,13,5,-5,5,13,5,4,10,-3,0,6,6,-6,12,4,12,13,1,2,11,1,10,12,0,24,18,17,1,35,20,16,12,11,26,17,9,26,10,15,28,14,19,19,23,9,15,14,25,27,23,15,36,25,42,18,12,11,10,39,34,17,24,35,20,39,20,25,20,29,6,42,28,29,25,24,39,29,21,20,32,38,21,25,23,26,28,44,29,5,44,14,28,27,25,24,34,16,25,37,19,29,35,49,52,35,53,34,38,43,60,54,59,39,45,42,49,65,47,55,48,52,46,50,65,72,63,58,58,35,57,64,47,53,57,66,39,54,48,53,44,54,57,58,52,69,57,43,27,37,36,38,52,49,47,35,33,39,37,35,41,60,35,43,53,41,36,48,32,37,33,38,45,51,42,53,58,35,51,58,33,35,56,23,33,53,29,20,42,41,42,42,40,27,38,41,42,53,24,38,46,47,20,44,40,42,32,37,60,42,24,42,57,32,36,57,50,50,34,57,41,63,34,54,49,68,60,66,48,49,62,51,52,61,66,72,68,77,73,70,74,63,59,55,55,62,52,76,62,66,53,54,47,49,47,44,60,34,39,29,35,33,48,21,36,35,30,7,31,20,9,21,28,23,18,18,23,30,15,17,9,10,7,34,13,15,18,20,23,29,21,6,21,32,42,33,34,34,5,24,21,39,10,29,17,10,42,10,17,25,4,11,3,-14,8,18,46,64,92,145,183,238,279,327,357,404,413,425,420,420,405,377,369,316,276,249,205,156,140,107,98,65,47,51,43,50,29,27,15,1,12,8,-4,-6,-4,-11,-6,-12,-12,0,-20,7,-9,-35,-15,-1,-21,-1,-17,-18,-13,-4,-20,-25,-12,-24,-19,-5,7,-16,-6,-11,2,-14,-8,0,8,1,-6,-1,6,-3,-13,2,-16,-15,2,4,4,21,-8,-14,1,-10,22,16,10,16,11,15,7,11,9,2,23,17,7,2,21,8,17,0,7,11,11,7,25,19,-2,12,11,10,20,9,13,19,28,23,16,33,18,1,19,23,9,30,15,7,29,12,23,20,30,44,27,33,23,33,37,25,29,35,44,20,44,20,37,SampleRate:500/TimeStamp(20)/TimeStamp(120)/TimeStamp(220)/Beep_Pulse(370)/TimeStamp(320)/TimeStamp(420)/HeartBeat_Dominant(360)
2004-09-15 08:12:37,27,39,30,13,46,42,31,34,23,27,35,17,43,31,42,52,33,48,43,45,40,57,54,47,39,67,48,43,47,40,70,46,78,50,56,64,60,68,49,66,68,48,59,63,59,41,55,47,49,46,40,63,47,34,28,50,44,54,35,47,53,60,54,41,48,45,30,46,42,47,46,46,47,52,28,42,31,48,36,33,57,35,51,36,49,37,34,39,34,37,37,39,45,52,54,31,38,33,56,33,48,44,39,56,32,38,31,44,38,31,20,29,29,34,51,37,36,49,41,46,45,39,28,42,52,29,51,28,49,54,50,31,52,44,56,67,49,42,61,52,43,62,54,52,76,64,60,69,70,87,72,86,72,75,59,71,57,68,68,73,66,63,82,65,42,58,59,43,36,53,46,55,39,51,39,52,38,38,36,15,42,34,20,15,30,30,34,12,3,38,36,25,49,31,14,37,29,26,22,28,28,27,11,22,26,21,18,27,28,18,22,25,16,8,30,5,12,44,25,34,42,19,12,16,15,21,18,4,28,17,55,73,122,159,209,253,298,327,365,396,430,415,427,412,404,385,342,312,297,233,201,159,129,109,74,64,61,49,57,43,45,30,28,20,12,2,11,9,-8,4,3,-11,-16,-6,-21,-4,-9,-7,8,-14,9,-9,3,0,-19,-22,9,-16,14,15,-14,-2,-2,-3,0,-8,-17,-20,1,-5,6,6,16,-4,14,-3,-7,5,-7,14,22,-6,-3,12,-10,2,9,4,7,-4,-1,5,8,24,-1,14,0,17,9,22,10,11,0,13,9,2,27,8,17,17,2,24,16,18,20,22,21,26,25,26,37,24,11,11,21,30,23,24,20,36,23,53,27,37,37,31,20,29,30,35,40,40,23,39,36,7,37,34,36,40,33,43,33,35,43,44,48,53,49,43,51,40,58,57,61,51,48,55,62,54,49,63,46,41,58,62,35,76,46,64,56,55,51,70,68,62,62,76,53,67,58,68,58,64,57,44,58,51,72,45,63,74,58,50,67,48,55,61,52,56,40,58,53,49,47,56,38,59,36,44,61,58,48,46,58,48,46,51,46,47,36,53,59,44,45,55,53,51,42,47,47,46,57,42,46,52,39,50,40,41,62,43,35,35,67,60,72,95,95,109,109,125,132,134,153,174,180,196,207,218,SampleRate:500/TimeStamp(20)/TimeStamp(120)/Beep_Pulse(250)/TimeStamp(220)/TimeStamp(320)/TimeStamp(420)/HeartBeat_Dominant(240)
2004-09-15 08:12:38,208,236,247,243,244,254,263,286,291,298,307,343,359,360,400,391,410,427,435,463,463,463,455,457,421,406,387,356,324,286,257,231,170,165,120,108,87,92,91,100,85,107,98,129,117,137,115,97,65,50,54,26,-8,-9,-36,-37,-40,-48,-46,-38,-56,-46,-56,-51,-46,-64,-54,-48,-57,-63,-63,-81,-54,-68,-62,-57,-70,-64,-54,-65,-68,-54,-55,-72,-65,-70,-44,-47,-58,-34,-38,-47,-69,-62,-62,-57,-64,-66,-42,-32,-47,-53,-68,-46,-53,-38,-34,-66,-54,-60,-67,-63,-61,-58,-66,-67,-64,-60,-69,-59,-80,-65,-68,-56,-89,-56,-52,-67,-79,-80,-77,-83,-65,-74,-89,-69,-76,-83,-64,-83,-81,-73,-79,-72,-87,-66,-80,-76,-46,-75,-62,-57,-82,-61,-63,-70,-65,-61,-48,-69,-64,-62,-58,-56,-56,-46,-59,-41,-55,-47,-51,-53,-30,-37,-34,-28,-23,-13,-12,-15,-22,-17,-9,-5,-12,18,1,-1,-4,1,1,-16,13,20,36,31,34,2,15,14,27,36,31,17,15,28,37,34,45,36,36,46,54,35,32,27,50,35,42,54,44,49,48,62,49,61,62,65,42,48,56,72,68,56,52,60,62,50,59,54,60,64,59,66,72,69,53,62,59,81,59,57,72,44,71,70,53,64,55,54,65,53,61,56,64,58,59,61,55,32,49,47,59,53,59,49,61,72,47,52,49,68,49,53,67,58,51,56,55,60,60,72,52,63,62,61,56,36,65,56,58,62,57,60,66,74,70,63,80,56,71,59,47,35,71,67,59,49,67,56,59,71,65,67,73,62,74,79,60,74,43,69,58,75,52,58,64,49,68,40,59,66,59,70,75,67,61,87,73,72,65,61,62,60,89,66,63,51,65,69,68,54,50,61,58,57,74,70,61,64,49,65,85,70,64,77,61,44,73,79,59,60,65,74,56,61,65,70,78,71,60,79,86,69,84,78,72,87,82,92,92,113,85,88,100,88,70,102,92,97,108,106,111,104,111,115,123,94,119,107,111,99,88,90,82,100,112,94,108,111,98,94,116,88,81,70,80,84,78,72,71,65,69,58,53,69,75,45,65,33,46,36,43,51,56,51,60,58,56,64,50,46,43,37,50,64,55,67,39,47,61,59,49,63,38,46,48,51,51,53,53,42,57,45,50,40,46,29,49,43,48,45,69,95,140,150,226,280,344,380,SampleRate:500/Beep_Pulse(44)/TimeStamp(20)/TimeStamp(120)/TimeStamp(220)/TimeStamp(320)/TimeStamp(420)/HeartBeat_Abnormal(16)/HeartBeat_Dominant(494)
2004-09-15 08:12:39,430,467,475,513,488,490,460,448,408,370,322,279,253,210,171,149,123,105,85,89,72,63,58,45,50,47,31,24,27,36,19,11,12,24,-12,19,3,6,20,1,13,23,11,9,8,-5,8,-3,8,3,-3,12,-16,10,7,3,10,0,10,-9,16,-4,-14,8,26,13,19,8,14,8,13,11,26,-1,12,12,17,-10,15,7,22,15,17,7,12,0,12,15,14,1,21,19,5,4,25,6,38,25,22,33,27,47,34,49,22,21,41,40,41,48,57,34,24,33,20,9,30,30,36,50,38,57,17,43,48,40,42,54,48,51,37,38,54,62,40,60,45,53,62,43,48,50,62,59,61,40,62,55,50,64,61,73,77,77,63,80,81,72,81,80,73,99,86,93,88,91,102,89,86,90,125,97,106,121,108,101,110,101,108,104,129,113,108,118,116,109,88,99,94,71,89,92,65,93,79,101,100,76,87,72,97,62,52,77,63,60,48,61,59,63,55,60,50,59,73,63,23,41,38,51,38,44,56,47,57,35,58,53,65,60,50,38,40,32,42,47,31,50,57,38,38,38,54,54,47,48,34,37,44,47,29,45,54,49,45,36,37,31,30,41,47,40,29,34,26,31,26,30,40,21,38,33,42,27,35,33,55,40,46,53,42,36,59,44,44,57,47,34,53,39,58,51,43,66,59,78,75,64,71,59,64,78,68,50,49,59,60,58,68,47,49,56,34,57,52,49,39,37,24,32,35,36,12,19,16,-3,17,9,2,23,13,20,33,11,15,14,7,17,28,19,16,17,22,10,11,27,18,17,0,9,23,15,26,20,11,9,7,20,15,18,-9,15,28,19,21,9,12,-5,20,37,-5,14,-6,10,21,13,20,45,65,106,163,203,253,285,341,397,396,416,416,423,413,397,374,346,313,260,219,166,144,117,111,65,60,44,58,37,45,31,7,21,6,3,-4,-9,-8,-3,-4,-4,-25,-8,-9,-18,-38,-1,-25,-22,-27,-15,-23,-17,-27,-22,-14,-24,-9,-9,-21,-28,-20,-23,-7,-34,-37,-3,-23,5,-11,-16,-13,-18,-2,-16,-3,-5,-11,-14,-6,-3,-8,-1,5,-9,-4,-19,-14,-1,-17,-1,18,0,4,-4,4,-12,6,-6,13,1,6,-8,-13,9,4,-7,3,5,13,-21,-2,0,7,-3,15,19,21,-1,9,21,-1,7,SampleRate:500/Beep_Pulse(12)/TimeStamp(20)/TimeStamp(120)/TimeStamp(220)/Beep_Pulse(396)/TimeStamp(320)/TimeStamp(420)/HeartBeat_Dominant(385)
2004-09-15 08:12:40,16,13,23,24,6,13,12,37,19,22,17,5,19,15,12,1,17,6,20,18,27,4,20,28,24,22,23,19,28,32,4,34,24,14,19,20,21,23,30,31,29,23,31,33,30,23,20,27,30,47,28,23,48,46,57,41,32,43,31,56,44,39,54,48,38,51,45,35,48,40,38,50,40,36,53,32,64,43,55,53,46,41,34,40,35,26,29,44,29,11,28,36,37,38,27,35,25,28,41,37,20,34,41,35,27,31,39,40,32,43,11,21,32,45,33,37,46,41,29,40,29,38,31,56,49,34,27,38,47,48,30,39,18,43,22,34,61,35,48,42,27,30,24,37,36,29,36,38,27,55,58,57,46,44,41,35,58,40,49,61,52,46,62,38,55,45,50,49,73,51,49,48,55,76,82,63,86,60,61,71,54,59,53,33,82,61,49,41,53,51,64,54,61,35,60,42,55,35,48,34,41,23,47,48,43,35,43,34,30,29,14,14,8,41,32,29,29,19,15,11,21,38,13,27,34,21,27,31,19,14,25,8,14,35,35,46,27,22,45,25,46,21,40,38,34,14,37,17,6,8,-4,12,3,0,20,19,55,66,86,144,171,250,277,327,369,387,398,414,439,432,409,386,363,338,288,231,219,163,132,112,99,73,45,45,47,40,37,32,22,25,24,11,-1,1,-6,-2,11,11,3,-3,-4,-15,1,8,-3,-17,-17,-14,5,-14,-3,-4,2,-1,-1,-3,9,-5,2,-11,0,19,-3,17,7,-7,2,-15,-7,6,-2,15,-1,0,2,4,11,16,10,-2,-9,-1,19,-12,21,7,6,9,-1,5,17,-10,23,-2,3,6,-10,14,9,27,9,11,17,12,8,36,19,21,15,27,18,12,31,10,32,26,29,8,10,31,30,26,32,3,9,28,21,31,23,29,18,17,12,30,20,27,30,40,27,28,29,23,19,30,40,32,32,17,33,19,21,29,44,16,35,26,26,28,43,49,32,33,26,36,48,39,37,55,46,40,63,37,57,59,44,55,56,63,48,60,63,66,42,51,46,49,60,63,64,45,43,58,39,48,75,39,47,55,61,60,37,56,25,41,45,51,42,64,40,48,38,55,23,55,59,48,51,50,50,60,62,55,34,51,51,51,53,56,47,25,46,38,59,42,50,42,59,38,34,62,SampleRate:500/TimeStamp(20)/TimeStamp(120)/Beep_Pulse(276)/TimeStamp(220)/TimeStamp(320)/TimeStamp(420)/HeartBeat_Dominant(265)
2004-09-15 08:12:41,50,49,28,47,41,45,70,47,21,64,61,44,58,46,50,90,74,101,109,100,126,129,150,150,164,160,181,207,208,202,207,243,234,238,265,259,257,289,299,331,348,356,369,385,416,420,459,475,463,464,451,438,407,407,378,346,312,279,244,208,187,127,99,81,67,57,83,105,103,108,105,120,114,103,88,65,41,28,27,-12,-40,-42,-52,-37,-42,-35,-56,-52,-56,-63,-61,-67,-50,-37,-56,-57,-75,-67,-52,-67,-56,-69,-58,-60,-54,-57,-61,-72,-52,-62,-57,-62,-73,-51,-67,-58,-56,-59,-54,-53,-71,-66,-67,-64,-66,-79,-53,-74,-84,-79,-78,-65,-72,-71,-66,-72,-81,-74,-65,-85,-71,-74,-71,-82,-82,-70,-65,-98,-95,-94,-82,-90,-85,-66,-80,-80,-84,-68,-89,-81,-80,-79,-84,-81,-84,-100,-85,-97,-75,-72,-85,-95,-98,-70,-84,-66,-68,-84,-63,-63,-79,-52,-71,-60,-70,-70,-62,-69,-43,-74,-67,-76,-55,-84,-53,-35,-66,-59,-59,-50,-21,-43,-68,-36,-46,-30,-27,-39,-37,-34,-18,-35,-27,-28,-31,-9,-25,-3,-12,-4,-4,9,11,19,-15,-6,41,6,4,18,10,38,14,16,27,34,34,26,45,45,35,30,24,38,36,38,59,51,49,42,35,57,47,64,37,56,71,39,23,50,58,64,35,33,49,61,31,45,64,49,52,54,52,53,46,41,64,60,56,46,46,46,40,60,51,31,44,51,47,56,52,55,49,43,52,48,39,51,46,54,44,47,54,60,46,68,43,57,65,38,54,55,55,59,54,49,54,51,51,62,47,45,53,41,47,31,70,54,73,44,51,43,52,61,44,64,38,57,49,48,65,49,49,46,54,56,37,45,61,40,49,50,53,50,46,42,30,45,57,66,47,45,62,51,65,53,70,48,51,52,43,47,59,47,44,36,35,49,56,53,55,46,53,55,44,38,45,53,50,54,61,61,49,28,42,33,48,41,63,53,55,59,59,48,57,33,45,26,52,38,34,38,51,40,49,50,49,55,53,51,62,52,43,66,62,55,62,64,66,82,60,75,62,63,59,65,77,67,64,75,73,78,83,102,97,65,67,66,67,66,67,61,74,84,83,88,59,61,80,78,42,53,62,54,70,50,47,46,55,46,40,34,53,35,42,40,42,18,22,36,27,48,53,21,23,28,45,37,33,39,14,28,33,30,31,20,41,54,25,41,SampleRate:500/Beep_Pulse(72)/TimeStamp(20)/TimeStamp(120)/TimeStamp(220)/TimeStamp(320)/TimeStamp(420)/HeartBeat_Abnormal(47)
2004-09-15 08:12:42,18,31,29,29,23,22,30,32,35,52,24,24,32,19,11,22,23,37,46,79,126,170,242,274,305,377,411,436,447,472,467,444,439,408,377,334,286,232,208,168,133,121,88,71,64,57,39,55,62,34,35,43,23,11,13,-30,13,-5,-9,17,17,-10,7,-4,4,-4,8,-11,9,8,-15,-4,-1,-4,2,-27,19,5,-10,9,9,9,10,9,0,-6,6,11,5,2,2,16,-2,1,-2,20,19,6,19,9,16,21,14,13,6,12,-3,10,27,8,3,8,19,9,14,22,26,35,24,14,19,20,29,20,28,32,31,29,27,33,35,40,42,24,37,32,44,55,33,42,51,32,34,40,33,59,54,36,47,54,63,44,49,40,52,53,58,59,47,49,54,60,61,39,51,62,65,48,61,62,51,52,57,60,59,58,74,61,71,67,68,70,71,69,81,73,84,86,94,93,103,94,107,96,98,80,86,117,105,98,98,105,100,106,87,107,104,106,89,89,97,88,91,90,88,78,90,94,65,83,92,82,73,82,64,75,56,67,68,69,58,50,48,52,63,49,65,54,63,45,51,54,58,50,41,39,52,58,60,49,54,50,48,42,49,67,52,49,38,48,54,36,46,47,54,61,48,32,48,46,63,45,38,53,64,44,53,52,38,56,50,49,53,43,48,69,33,57,44,52,38,52,48,50,38,39,30,48,50,43,42,54,35,42,54,67,54,49,70,72,63,57,54,61,52,70,59,67,72,59,72,59,82,65,69,75,69,81,54,89,59,60,75,46,64,60,62,53,64,69,60,54,46,39,60,54,38,44,40,35,36,45,30,39,11,25,14,31,33,18,29,18,29,32,19,19,29,15,17,27,29,22,19,22,30,12,10,41,33,20,19,20,13,38,14,6,19,37,28,20,37,22,3,21,26,19,14,-2,5,18,26,27,45,77,107,168,198,269,324,365,402,431,441,438,449,428,408,388,359,322,270,223,177,144,113,108,91,79,34,55,62,39,23,22,31,4,7,-12,-5,-6,0,-1,-11,-26,-14,0,-15,-38,-20,-12,-1,9,-27,-17,-9,-22,-13,-13,-17,-19,-17,-17,-8,-13,-6,-17,-9,-14,-11,-2,15,-3,-12,-24,-8,-7,-13,-17,5,1,3,-11,6,-7,-7,4,-2,-9,-2,10,-3,1,-9,-8,-3,-7,6,24,6,-1,SampleRate:500/Beep_Pulse(38)/TimeStamp(20)/TimeStamp(120)/TimeStamp(220)/TimeStamp(320)/Beep_Pulse(422)/TimeStamp(420)/HeartBeat_Dominant(21)/HeartBeat_Dominant(408)
2004-09-15 08:12:43,9,10,-6,13,18,-4,8,-6,-8,2,10,5,5,1,1,-4,19,9,5,16,16,24,8,7,24,6,24,16,10,10,30,26,10,24,17,16,19,39,33,25,23,18,31,24,13,28,20,26,32,25,39,16,23,37,35,29,19,28,20,23,33,36,57,30,29,41,34,43,39,28,35,37,36,28,32,42,49,53,70,54,50,56,43,58,60,43,58,61,43,56,60,48,57,51,50,63,54,46,53,60,37,30,70,51,41,50,61,39,52,50,46,49,68,47,50,32,46,66,51,44,46,57,45,47,58,53,49,44,46,38,36,56,44,43,43,43,52,56,47,37,46,45,40,39,38,46,41,61,55,50,47,44,52,55,48,35,51,52,49,34,50,43,39,40,46,53,44,57,60,57,41,39,37,41,65,47,35,44,57,65,56,51,60,53,56,64,59,62,64,64,44,54,73,53,62,60,51,59,59,81,74,66,64,71,54,66,61,65,65,43,67,62,46,63,64,56,55,69,50,59,60,36,46,45,32,51,22,48,32,41,47,41,28,29,1,15,23,13,21,36,34,15,31,33,40,34,13,23,30,26,31,34,39,33,39,27,31,31,21,19,28,21,11,30,25,43,34,28,28,28,16,26,23,43,22,4,-1,12,28,21,24,83,104,148,194,242,292,334,376,389,419,410,430,445,409,391,380,347,297,269,219,188,150,124,92,76,63,72,39,39,47,52,31,22,1,5,-14,-13,8,7,7,14,12,10,-8,-5,6,-7,-3,14,-19,-16,6,-3,9,5,17,4,3,-10,-3,14,8,-2,-9,-4,-13,9,6,13,9,7,11,15,4,4,20,-2,-11,25,2,19,17,19,7,10,4,3,3,-12,7,4,24,8,20,6,13,17,7,28,24,-2,33,10,18,8,25,24,24,29,27,11,23,35,23,27,21,-2,27,19,37,18,28,28,28,31,32,27,45,41,32,26,31,40,38,34,28,23,42,40,21,35,44,37,34,27,30,53,29,41,26,50,39,52,30,52,39,45,52,36,50,46,52,42,68,53,55,48,61,61,51,44,46,44,59,60,53,75,52,60,62,50,57,60,78,60,71,60,79,66,66,73,59,67,56,54,60,67,33,51,47,83,70,62,48,46,50,68,54,54,54,40,54,61,49,36,55,48,47,36,SampleRate:500/TimeStamp(20)/TimeStamp(120)/Beep_Pulse(300)/TimeStamp(220)/TimeStamp(320)/TimeStamp(420)/HeartBeat_Dominant(286)
2004-09-15 08:12:44,40,44,47,47,38,41,38,43,49,44,43,53,44,54,58,50,52,39,48,47,41,48,44,31,34,43,41,21,37,52,36,28,44,27,35,41,47,39,49,32,38,42,41,46,54,31,20,41,36,43,45,51,37,36,26,39,40,44,27,45,51,49,54,68,52,53,73,63,53,54,56,51,43,45,45,68,57,72,63,71,78,69,49,62,56,68,39,48,52,57,57,53,48,57,55,37,41,34,50,45,50,28,34,43,47,39,30,28,24,24,30,13,3,10,18,18,6,17,33,18,39,23,20,24,11,26,29,25,30,17,16,24,19,25,32,17,24,31,14,44,26,32,39,32,1,13,15,21,26,33,4,10,2,3,28,27,28,48,85,118,169,200,240,293,350,380,398,415,412,412,433,399,372,348,307,270,229,189,149,123,90,63,56,69,52,43,47,34,34,37,28,-9,-5,-9,11,-6,-12,-13,-20,-14,-17,-26,-4,-11,-25,-13,-18,-7,4,-23,-6,-1,-14,-13,-11,-12,3,-16,-11,-13,-17,4,3,-20,10,8,-22,-7,10,15,7,-8,-8,-9,8,24,23,6,4,14,5,11,6,2,0,14,29,6,9,10,22,4,8,1,25,12,14,25,-2,8,8,26,25,23,12,16,19,8,14,20,39,43,42,29,9,34,35,31,18,25,31,17,28,22,30,34,24,26,30,18,47,38,4,31,29,11,32,21,40,35,43,35,33,25,50,42,29,39,47,43,42,28,33,48,35,38,56,36,45,40,62,25,46,69,57,63,36,45,70,54,53,59,45,55,60,49,61,61,64,56,59,57,54,64,85,75,66,60,56,54,62,68,52,57,60,54,61,53,54,61,54,62,60,39,28,47,44,60,51,51,64,29,59,52,38,51,48,45,54,50,51,36,59,51,59,41,52,45,39,43,42,57,62,39,44,56,61,34,50,46,51,40,29,49,27,32,42,54,25,43,55,46,42,33,31,56,37,28,41,47,25,33,28,40,31,50,46,42,38,33,57,51,66,51,47,40,65,73,58,73,53,54,59,55,68,59,64,66,77,52,45,76,60,56,70,66,73,52,72,64,60,45,67,62,58,55,39,74,53,52,49,55,66,60,53,60,64,43,29,44,34,59,29,38,56,38,34,29,22,32,29,9,28,42,13,22,31,9,25,50,SampleRate:500/TimeStamp(20)/Beep_Pulse(176)/TimeStamp(120)/TimeStamp(220)/TimeStamp(320)/TimeStamp(420)/HeartBeat_Dominant(162)
2004-09-15 08:12:45,50,49,40,29,35,32,25,33,7,46,32,29,36,30,23,25,13,23,26,23,27,23,33,18,21,12,40,14,20,29,51,57,67,123,153,199,248,301,346,373,413,411,416,428,425,431,413,381,339,298,248,208,173,147,128,107,71,50,44,60,45,48,21,43,24,31,24,9,8,14,-1,10,15,-6,2,-5,-3,-15,7,-12,4,-20,-16,-11,-17,-6,-18,-4,-3,11,-16,9,3,1,8,-5,12,-11,-8,-6,7,-17,1,8,-1,0,17,-5,0,11,-7,4,14,21,25,11,14,11,6,1,28,19,15,34,9,25,23,8,18,13,17,14,19,14,30,20,4,24,24,11,22,29,22,19,17,26,36,17,27,27,26,24,18,28,22,31,35,31,37,34,26,35,47,37,46,18,35,47,50,35,42,46,37,33,29,35,42,49,42,31,40,28,48,34,47,41,47,33,42,45,35,52,62,52,53,61,43,52,42,48,47,74,44,75,56,54,75,59,69,64,67,64,70,60,80,82,69,70,73,79,67,73,64,70,80,75,69,60,69,55,74,45,69,73,64,70,78,75,62,51,56,46,48,57,51,55,38,60,54,64,56,54,47,41,57,54,56,53,53,49,58,48,49,53,62,41,42,51,53,31,59,36,45,44,58,60,59,45,48,40,48,41,38,46,59,56,39,37,47,42,54,45,60,50,44,54,60,42,49,42,61,50,48,51,51,52,51,45,66,48,43,68,53,62,56,45,72,59,66,57,59,50,56,54,74,68,60,58,79,76,92,68,45,47,53,50,68,56,59,67,57,65,51,64,67,49,51,58,42,51,37,59,36,37,38,32,49,17,25,43,35,43,25,23,38,27,26,25,47,34,17,17,32,27,20,40,22,42,22,37,34,23,44,32,31,19,43,29,12,32,14,37,27,32,22,40,34,28,18,13,12,21,29,34,56,93,121,148,210,270,302,354,401,433,443,449,449,443,425,416,368,356,284,233,201,143,139,95,96,77,63,52,63,47,30,32,9,21,17,18,0,8,-2,4,-11,-4,-5,-4,-8,-27,-13,9,-15,-27,-8,1,3,-7,-16,0,-9,7,-8,-16,7,5,-9,-19,11,-9,10,15,-13,-8,-9,-1,16,4,6,5,-8,16,3,4,0,1,12,18,15,-1,28,3,-11,24,10,-3,11,13,20,21,SampleRate:500/Beep_Pulse(50)/TimeStamp(20)/TimeStamp(120)/TimeStamp(220)/TimeStamp(320)/Beep_Pulse(424)/TimeStamp(420)/HeartBeat_Dominant(34)/HeartBeat_Dominant(412)
2004-09-15 08:12:46,11,15,20,0,16,-1,29,14,17,19,17,9,16,9,20,38,29,27,22,24,27,13,27,12,24,5,37,17,30,21,17,19,34,18,7,18,30,25,31,17,24,36,11,39,18,26,18,30,24,24,19,22,25,21,20,39,27,29,24,34,28,34,35,47,37,26,26,35,34,48,47,44,60,40,63,58,46,46,43,53,51,35,52,58,55,64,44,48,49,43,46,67,73,38,70,55,39,59,65,56,60,50,58,49,64,63,40,48,41,48,62,50,57,51,50,35,34,24,42,57,39,33,52,54,47,32,54,43,45,40,61,64,56,47,57,55,59,57,36,37,53,35,42,58,47,38,47,43,43,50,43,53,40,42,28,35,36,46,50,32,51,33,42,34,57,44,30,47,31,31,52,50,35,46,29,38,31,44,24,34,40,31,63,60,34,49,59,56,65,46,62,55,58,39,33,68,56,36,39,43,38,44,53,62,59,45,66,49,53,39,53,28,44,51,31,59,51,50,41,50,54,45,39,51,33,37,25,38,35,33,34,20,30,21,-5,27,18,24,38,27,29,43,30,43,45,26,33,26,33,36,30,3,32,25,44,29,26,23,32,37,34,26,32,35,12,40,27,28,35,33,10,19,23,31,26,37,72,85,147,173,199,270,310,367,388,409,400,422,403,431,388,379,337,298,236,216,183,126,113,100,75,65,50,54,40,50,31,40,47,18,25,13,18,-1,-8,-6,-2,-21,-2,3,-8,-1,-20,-5,14,-9,-12,-7,-5,2,-14,-26,0,-11,-11,-13,-14,2,-17,-11,3,-5,-5,-9,12,2,2,-4,8,-23,-13,-8,-7,12,3,-1,-8,-1,-4,11,9,11,-2,-4,5,10,-2,4,2,7,-3,10,12,26,30,13,15,22,-4,4,-2,3,7,21,-3,17,17,12,30,9,11,1,12,25,33,0,19,11,35,19,32,11,8,14,30,29,24,11,29,25,32,21,24,32,16,16,30,28,20,35,21,30,26,28,23,18,14,23,36,22,13,28,32,38,35,21,34,19,30,50,35,31,43,23,45,40,49,41,52,53,40,23,47,43,40,48,43,62,41,49,51,52,22,58,44,65,68,38,66,53,58,49,28,39,38,39,59,51,62,28,43,54,47,42,41,48,42,52,43,32,45,39,60,47,39,69,55,53,60,58,SampleRate:500/TimeStamp(20)/TimeStamp(120)/Beep_Pulse(296)/TimeStamp(220)/TimeStamp(320)/TimeStamp(420)/HeartBeat_Dominant(284)
2004-09-15 08:12:47,55,40,68,55,42,45,44,61,52,46,58,46,64,41,36,54,72,58,43,63,54,42,67,40,58,50,49,46,42,43,48,59,44,47,51,41,42,42,53,54,47,36,39,49,56,48,35,56,53,44,52,50,31,38,54,52,56,48,58,47,73,74,82,67,72,48,60,54,61,49,52,57,53,59,63,48,61,57,62,84,46,42,56,48,63,41,51,41,44,64,39,58,46,34,37,41,42,25,31,30,39,38,23,39,30,28,44,27,20,25,23,42,36,17,24,11,23,32,37,49,40,39,30,32,24,20,8,26,33,24,39,39,24,33,33,40,21,20,20,27,10,2,21,30,21,54,80,128,161,200,246,313,346,377,387,397,427,418,420,405,385,348,318,259,226,197,152,129,108,78,75,53,54,61,51,47,42,42,21,26,24,3,15,-10,2,-9,3,-2,-8,-15,-8,-21,-14,-21,-12,3,-13,-14,-10,-22,-9,-3,-13,-7,4,-10,0,-17,9,-2,-6,1,1,16,-11,-11,5,-18,-13,6,15,19,6,-8,12,9,21,-2,3,1,8,19,16,12,12,6,13,13,23,13,7,11,12,6,9,5,11,-5,11,9,-3,9,9,7,19,17,3,19,0,27,15,3,18,27,21,7,7,22,29,12,25,22,30,35,26,40,23,25,31,19,37,33,25,25,26,39,11,41,29,20,24,29,22,38,32,21,37,25,18,48,33,22,49,32,39,56,49,46,45,45,40,60,33,59,53,37,58,54,44,39,64,53,50,57,45,57,50,65,53,35,65,49,50,49,70,65,57,60,64,54,61,51,43,72,61,61,41,62,59,44,58,49,57,71,48,63,57,41,36,47,39,62,53,40,45,61,58,55,46,52,59,48,57,48,47,43,39,33,46,46,40,49,49,44,38,37,70,46,48,35,36,41,59,45,32,42,52,31,39,62,32,36,40,39,44,36,41,51,38,38,44,46,48,45,25,51,66,36,60,56,59,49,40,44,45,28,54,56,46,61,47,39,57,38,43,47,55,44,55,54,30,52,51,60,48,58,68,44,41,44,67,40,49,64,53,28,37,40,42,44,42,37,56,34,29,35,49,46,35,35,20,0,14,28,6,36,29,20,23,26,4,28,18,34,17,19,34,24,-5,23,9,12,13,22,35,19,17,5,37,22,SampleRate:500/TimeStamp(20)/Beep_Pulse(164)/TimeStamp(120)/TimeStamp(220)/TimeStamp(320)/TimeStamp(420)/HeartBeat_Dominant(149)
2004-09-15 08:12:48,26,15,21,35,19,19,16,40,29,20,7,0,17,28,46,52,84,115,163,217,267,310,339,368,411,412,423,416,407,414,386,358,309,290,224,191,168,118,94,92,70,55,55,45,46,49,38,21,23,25,5,15,1,-7,0,3,-4,10,10,-13,-12,-9,-11,-7,-16,-5,-8,1,-11,11,-4,-6,-24,-12,-6,3,-16,-3,-3,-5,-2,0,-1,-13,16,-9,-5,14,-7,-1,-6,-3,-13,-14,8,-15,18,1,14,7,-5,-11,3,-5,-14,-15,-1,8,13,-2,-5,9,11,1,4,1,15,26,5,5,-8,16,14,6,15,24,12,24,16,14,16,32,28,12,26,24,23,18,7,9,29,22,34,23,29,12,14,52,36,1,22,23,24,31,22,33,47,12,6,28,17,-1,32,40,33,37,32,21,16,38,4,26,54,32,23,30,28,39,45,32,46,32,50,32,57,51,39,41,40,51,47,66,45,30,52,49,57,41,50,63,46,63,55,50,52,42,69,51,57,49,64,35,53,52,50,73,41,50,43,53,48,46,43,57,47,38,60,67,50,46,53,46,58,54,61,52,35,41,62,58,57,57,59,44,58,48,61,39,58,41,54,65,37,55,43,44,51,56,51,37,54,65,41,52,54,42,45,35,57,48,42,45,37,43,41,41,38,43,41,54,42,46,47,46,53,46,54,68,38,52,43,44,39,38,39,77,66,61,60,55,66,70,62,49,58,58,64,73,75,56,69,51,64,60,66,59,52,53,46,47,47,56,41,39,50,41,56,39,57,51,62,56,55,53,38,39,38,43,48,37,34,41,23,50,35,43,45,51,32,46,40,40,39,47,41,66,37,61,38,55,27,46,43,46,36,47,36,21,40,46,21,46,34,29,51,47,46,46,47,42,37,38,21,39,69,85,118,168,222,263,324,364,417,430,457,453,460,462,447,427,376,333,303,267,224,182,165,115,108,74,88,68,53,47,59,49,51,30,37,25,33,25,14,16,4,-1,17,10,12,18,8,-6,-8,5,17,8,8,3,8,13,9,-9,18,23,20,16,2,29,13,21,-6,19,2,20,19,16,16,27,31,26,14,13,28,22,8,29,19,16,11,7,5,19,27,13,41,25,41,27,23,27,30,19,38,34,22,24,26,36,31,44,33,23,37,38,44,37,32,32,35,30,SampleRate:500/Beep_Pulse(34)/TimeStamp(20)/TimeStamp(120)/TimeStamp(220)/Beep_Pulse(404)/TimeStamp(320)/TimeStamp(420)/HeartBeat_Dominant(22)/HeartBeat_Dominant(387)
2004-09-15 08:12:49,26,25,25,31,25,36,37,40,43,26,35,38,23,19,43,33,39,41,38,40,40,32,36,42,42,36,39,51,51,45,26,39,54,45,37,50,34,45,52,40,46,31,44,32,44,57,44,51,41,48,37,56,55,49,27,66,46,51,39,56,57,46,50,53,71,62,65,51,59,60,77,60,54,66,52,58,59,55,52,56,67,49,64,45,54,61,38,45,63,55,54,67,53,73,53,44,44,45,63,53,65,47,50,50,60,35,59,45,52,49,43,59,42,34,53,51,29,45,49,24,47,38,52,61,50,54,45,64,56,62,70,57,57,63,63,51,50,31,49,52,40,36,42,65,55,50,53,52,51,44,41,57,37,45,71,66,62,60,41,40,49,55,54,47,48,64,58,80,54,35,56,55,59,52,54,67,45,71,54,61,61,44,65,57,56,63,69,34,42,62,55,51,50,36,46,49,47,48,55,50,30,45,34,47,48,52,37,20,32,38,14,17,13,20,15,22,16,21,20,18,23,19,15,19,23,13,32,28,36,28,25,28,36,27,26,18,21,27,32,40,13,17,42,24,22,24,23,16,2,8,5,38,27,42,75,123,167,219,281,326,375,404,417,440,433,436,445,425,401,353,318,254,220,189,142,114,92,92,65,60,54,43,58,31,32,39,13,24,20,-2,4,14,-4,-7,-11,-2,2,5,-10,-9,20,-6,-2,-8,-9,0,2,-21,3,-5,0,1,-13,7,-28,-4,2,1,-17,-17,-6,5,-16,-11,1,-6,-10,-8,-14,-8,2,-17,8,-10,6,11,7,16,13,5,-15,8,19,-1,7,-5,26,15,24,9,5,17,-1,12,9,1,2,16,10,11,3,14,12,19,2,20,29,25,1,25,20,32,17,22,23,-1,46,14,20,23,9,7,12,17,15,33,28,24,26,24,23,16,28,19,24,37,22,30,14,21,11,18,15,8,38,36,18,33,23,36,34,26,30,19,40,24,35,41,40,30,42,38,57,54,59,49,53,46,47,51,58,57,67,69,48,71,67,55,68,61,48,66,57,67,74,65,57,48,58,45,64,61,42,40,56,65,79,59,58,64,66,50,45,52,49,52,42,54,50,46,56,42,47,52,51,47,45,54,48,41,45,44,37,60,49,37,46,36,48,59,37,47,53,40,36,47,64,44,51,53,SampleRate:500/TimeStamp(20)/TimeStamp(120)/Beep_Pulse(272)/TimeStamp(220)/TimeStamp(320)/TimeStamp(420)/HeartBeat_Dominant(255)
2004-09-15 08:12:50,66,45,58,46,53,64,40,52,51,34,52,48,35,40,65,44,50,56,56,57,48,53,49,46,56,57,39,39,53,41,66,62,69,58,59,71,50,63,52,58,71,56,64,47,47,61,58,51,53,63,80,69,58,51,61,54,62,41,62,41,46,42,47,47,63,37,57,58,63,54,57,36,48,55,36,32,36,39,46,43,28,43,31,40,43,29,25,42,28,41,43,50,44,37,38,43,44,47,43,34,40,33,28,29,42,36,35,52,42,45,33,44,60,38,24,36,35,22,27,25,52,87,82,107,172,215,280,327,347,403,424,450,448,456,447,420,403,382,297,282,235,179,164,123,105,75,80,55,64,55,47,30,45,28,28,37,24,5,15,3,3,10,-8,20,9,-2,12,8,5,4,-5,-11,20,13,-5,2,2,19,5,-5,12,-2,-7,-4,8,3,14,-8,14,9,1,1,11,9,8,4,8,9,1,16,0,25,2,16,13,22,3,4,4,21,4,5,1,0,12,18,14,6,40,2,1,21,30,20,18,9,3,15,14,16,18,25,33,22,23,32,40,-18,30,28,24,19,5,19,24,15,1,27,27,24,39,17,17,24,18,20,19,33,20,35,23,19,26,30,38,29,46,26,24,34,43,1,27,38,41,36,32,40,35,36,42,28,33,50,36,42,40,43,54,49,45,37,44,35,42,53,41,59,53,48,44,42,62,54,55,52,76,55,56,51,64,55,51,48,33,77,66,39,56,57,69,50,54,36,54,44,54,56,66,70,37,47,45,48,54,39,51,48,40,50,40,40,41,47,45,56,52,60,65,52,46,53,33,35,69,58,49,75,43,30,44,52,54,48,61,58,64,51,47,32,25,49,28,43,39,50,47,43,40,29,42,39,42,48,41,62,53,62,46,53,47,43,52,49,51,48,29,46,53,42,67,24,61,60,49,55,50,58,46,63,62,46,46,48,47,49,26,72,64,77,68,61,43,47,38,52,50,38,61,46,56,35,39,53,26,43,55,60,40,44,20,39,36,31,31,21,21,39,29,25,26,35,41,26,25,11,42,19,25,54,18,23,29,18,21,19,30,4,8,37,26,43,24,9,36,21,43,35,31,19,25,22,39,10,8,2,-8,18,20,50,67,92,146,200,251,273,318,368,404,432,SampleRate:500/TimeStamp(20)/Beep_Pulse(140)/TimeStamp(120)/TimeStamp(220)/TimeStamp(320)/TimeStamp(420)/HeartBeat_Dominant(131)/HeartBeat_Dominant(495)
2004-09-15 08:12:51,430,441,417,421,397,367,326,296,231,184,165,124,116,85,70,59,59,56,55,41,34,22,35,-1,23,12,9,6,0,1,-11,-5,-17,0,0,2,-5,-13,-5,2,-19,1,-13,-18,-1,-7,-19,-10,-26,-8,-13,-30,-7,-6,-18,2,16,-18,-18,-3,-6,-11,-17,-5,2,-16,-10,-5,-11,-11,-5,-8,3,10,3,6,-1,12,-13,19,7,15,16,11,4,12,-3,12,3,-9,29,3,-9,10,2,8,8,4,4,14,16,24,14,18,5,30,19,12,18,19,0,23,6,27,22,31,5,42,17,26,23,13,21,29,23,10,25,41,27,46,19,20,13,15,13,26,16,15,38,29,22,28,30,46,33,42,28,39,37,44,47,34,16,40,38,35,60,45,49,29,35,40,53,44,44,49,58,55,55,45,60,63,71,70,45,55,65,53,59,58,52,44,60,59,36,64,63,56,48,61,53,46,46,61,48,62,47,68,39,45,48,54,45,52,42,42,58,51,62,59,50,53,64,54,68,45,57,50,40,32,45,58,50,58,41,49,58,54,52,54,41,53,57,39,41,41,44,53,48,57,51,55,42,55,57,57,45,52,39,39,47,51,43,37,46,46,41,59,47,60,32,57,63,48,57,31,44,41,40,43,53,49,50,69,48,63,49,49,69,56,46,43,65,65,60,77,57,53,75,57,62,46,71,45,55,45,47,44,50,45,45,57,51,45,63,43,34,58,47,39,45,33,31,39,33,45,38,37,39,36,18,32,28,61,22,39,34,33,34,41,30,43,45,42,20,33,42,32,32,54,31,27,34,43,21,38,36,31,66,42,28,26,35,23,23,39,39,46,53,76,122,172,204,258,325,361,399,410,446,435,438,438,424,417,379,314,280,243,199,168,121,113,84,86,65,61,65,41,52,24,37,12,18,24,8,14,15,4,7,4,0,-4,-8,-3,-16,9,1,-9,1,1,-13,-9,-10,-23,-2,-1,6,-9,19,16,8,-7,-13,3,-6,10,-3,7,10,6,5,16,-6,-1,7,9,-7,-2,-7,13,-6,31,3,10,6,11,3,4,20,-3,5,27,5,19,31,-1,5,8,40,18,22,10,25,25,5,20,37,27,20,32,21,27,14,11,27,25,21,38,25,23,24,27,29,35,20,31,36,31,27,37,18,34,11,25,26,27,28,24,23,37,SampleRate:500/Beep_Pulse(10)/TimeStamp(20)/TimeStamp(120)/TimeStamp(220)/Beep_Pulse(378)/TimeStamp(320)/TimeStamp(420)/HeartBeat_Dominant(362)
2004-09-15 08:12:52,19,43,47,34,31,31,36,23,36,42,27,43,51,43,26,19,25,46,41,34,53,52,44,43,45,42,41,45,68,40,42,52,70,52,62,48,47,48,59,77,66,59,72,70,66,59,60,85,76,65,67,51,71,44,43,51,58,39,63,50,54,55,35,50,65,54,41,56,45,53,60,45,60,58,53,32,44,53,44,37,37,40,57,44,45,52,59,55,47,60,35,50,54,56,46,53,38,63,38,45,46,57,54,41,49,61,55,51,49,43,48,35,60,57,38,54,47,42,36,62,60,39,48,40,48,37,37,61,55,57,56,49,40,49,56,36,45,44,56,60,59,59,58,70,80,62,72,54,50,71,67,41,56,63,86,65,73,67,66,70,64,65,48,64,40,49,59,57,58,45,35,54,37,38,42,54,50,48,54,41,14,44,26,42,32,17,32,38,39,39,35,33,32,34,39,27,27,45,38,13,35,21,31,17,22,30,21,35,23,28,26,44,21,23,39,26,20,37,42,18,22,8,46,13,33,42,60,97,121,169,214,264,315,358,391,413,436,443,429,426,400,390,333,299,270,217,179,141,117,104,81,73,43,54,46,53,29,27,19,25,22,10,-7,3,-7,-15,13,-3,13,-15,3,4,-8,-4,-2,-14,-12,-24,3,-8,-4,2,-13,-10,6,4,0,4,-10,-27,-14,-19,-9,-5,-15,-13,-3,-3,14,-2,-13,-9,-13,-3,-3,3,-6,-5,14,19,23,4,19,16,15,2,0,24,6,5,6,3,14,-10,15,0,16,14,-3,9,-8,13,-5,10,12,15,20,16,21,28,19,30,11,22,9,23,12,26,28,31,39,36,22,37,30,22,43,43,21,33,39,38,22,22,36,24,53,41,32,38,47,33,41,36,49,21,44,44,54,41,49,46,38,37,44,56,35,22,47,38,64,31,49,45,52,56,54,38,57,67,55,70,38,56,47,85,57,63,70,52,59,56,54,50,71,44,58,61,75,77,77,61,73,75,74,68,41,52,46,55,45,55,33,51,48,60,38,50,58,63,47,59,47,51,42,36,49,56,41,56,51,56,45,59,41,51,49,40,34,48,40,53,28,45,40,47,43,53,54,46,51,40,37,40,48,47,53,44,66,55,35,47,34,40,47,32,43,31,48,58,51,58,52,53,31,30,62,43,46,46,SampleRate:500/TimeStamp(20)/TimeStamp(120)/Beep_Pulse(246)/TimeStamp(220)/TimeStamp(320)/TimeStamp(420)/HeartBeat_Dominant(230)
2004-09-15 08:12:53,52,54,52,44,47,63,50,49,59,55,58,52,62,52,39,76,63,53,53,49,50,62,61,61,45,75,59,46,50,55,46,50,61,46,43,62,44,43,45,31,53,55,48,61,59,44,39,23,46,36,15,33,24,34,29,39,22,17,28,27,32,25,30,42,34,50,34,43,32,35,39,29,44,39,23,25,30,24,29,25,32,45,20,37,37,28,41,36,38,12,21,18,14,19,26,32,50,70,110,171,215,275,289,364,387,411,438,445,444,443,414,386,376,332,267,235,201,171,121,99,87,70,49,48,42,47,44,34,20,31,10,15,8,8,9,7,1,13,-6,-15,1,-7,3,-14,4,18,0,-17,8,-9,-14,-2,-4,-28,-14,-3,-2,-1,-34,-28,-2,3,-14,15,2,-13,-8,-6,11,-3,-8,4,5,-9,9,0,8,7,15,-1,5,-11,-11,1,0,11,15,24,-2,-1,18,2,14,-1,-6,-4,-4,7,-6,21,14,16,6,5,31,8,8,8,14,18,21,-4,16,20,35,14,23,24,15,19,23,38,35,2,42,10,8,25,36,37,33,32,27,14,24,31,34,24,24,38,25,27,32,28,27,41,52,44,42,60,50,41,51,40,57,37,45,42,36,42,50,48,55,39,52,50,69,47,64,56,54,63,85,53,64,60,61,60,63,66,61,65,70,53,63,72,67,70,71,70,72,58,59,54,56,49,62,60,42,48,52,46,50,48,56,40,44,64,45,42,66,42,51,54,29,59,36,58,41,52,61,52,49,46,61,39,46,49,65,43,46,58,53,42,40,35,54,52,44,38,38,49,63,48,42,54,29,37,46,45,22,21,43,26,31,45,53,39,30,30,20,48,35,27,52,61,62,51,31,35,42,44,50,52,30,59,53,55,43,44,79,39,64,43,62,67,73,65,30,54,56,47,47,55,57,56,63,65,47,67,34,66,46,45,48,37,40,59,54,48,41,41,41,63,50,49,45,37,35,41,40,30,36,24,31,23,35,19,23,28,19,24,26,7,26,15,25,19,33,6,14,15,26,18,22,33,31,32,29,23,35,29,22,34,38,27,37,31,29,15,25,32,17,8,11,14,63,47,53,93,133,162,209,276,311,364,429,420,440,451,433,437,403,386,354,282,275,224,182,158,112,105,74,75,59,45,55,38,22,33,SampleRate:500/Beep_Pulse(116)/TimeStamp(20)/TimeStamp(120)/TimeStamp(220)/TimeStamp(320)/Beep_Pulse(488)/TimeStamp(420)/HeartBeat_Dominant(105)/HeartBeat_Dominant(475)
2004-09-15 08:12:54,22,17,21,-4,2,12,17,-7,-3,-13,11,-20,-9,-5,-7,3,-12,-5,3,-7,-18,-8,-12,-19,-22,13,3,-8,-13,-13,-23,-4,5,-13,-21,-18,-17,-17,-2,-20,-11,-12,-12,-14,-19,-14,6,0,-5,10,-2,-2,-14,-2,10,-18,-13,3,16,4,-12,6,5,-14,3,3,10,9,7,14,15,3,30,18,18,3,28,17,23,18,33,2,-1,2,38,28,31,30,15,21,34,19,20,29,24,23,32,16,24,24,20,12,29,31,20,34,25,18,32,14,32,26,23,14,10,41,36,39,21,33,22,31,27,41,45,39,44,46,31,32,41,54,36,32,40,53,53,43,46,56,45,41,49,51,60,62,58,46,68,54,61,69,59,58,50,54,60,44,44,44,53,50,43,53,51,51,59,51,51,61,68,43,49,50,44,49,42,49,51,57,42,42,50,38,40,42,45,57,46,45,50,45,31,37,33,64,47,27,61,33,19,48,40,32,35,46,49,49,29,41,54,48,43,31,33,48,51,27,49,41,52,60,44,28,43,47,34,39,28,36,38,43,15,26,45,26,27,38,31,38,25,32,50,36,26,32,35,36,29,60,40,52,48,58,28,46,46,66,50,46,63,40,60,45,47,63,52,47,65,62,58,63,48,60,54,63,65,41,38,60,54,50,57,37,52,35,36,42,38,48,35,49,33,16,32,32,18,31,28,20,18,24,13,20,23,31,3,34,28,20,33,26,40,33,33,20,22,44,23,29,20,36,33,23,32,32,41,17,24,28,41,45,24,24,25,5,35,26,29,28,47,62,122,150,196,228,284,333,379,403,394,410,416,420,417,401,366,341,301,251,217,159,130,104,101,82,70,61,49,55,46,46,25,28,35,20,16,8,20,11,14,-4,6,-15,9,3,5,-5,9,-9,7,0,-3,-7,-15,-5,-15,5,10,-11,1,-1,-3,-9,11,10,15,-5,8,-5,7,-3,8,13,-6,32,-1,7,-28,21,10,5,-6,14,13,12,4,26,21,29,22,26,9,26,27,19,23,20,14,9,27,17,14,23,9,25,34,17,39,17,28,23,15,0,24,12,14,26,25,5,24,23,21,15,33,20,27,41,11,28,20,20,23,23,26,19,37,20,31,34,27,35,28,30,31,45,18,24,26,28,16,16,32,39,33,33,39,55,50,49,SampleRate:500/TimeStamp(20)/TimeStamp(120)/TimeStamp(220)/Beep_Pulse(360)/TimeStamp(320)/TimeStamp(420)/HeartBeat_Dominant(345)
2004-09-15 08:12:55,33,46,53,41,26,43,52,35,50,44,64,43,51,60,34,57,47,50,48,61,33,51,70,50,54,59,65,52,51,49,46,42,64,44,49,74,51,53,58,47,62,61,53,40,48,49,41,54,45,48,58,50,61,63,21,42,31,35,43,36,40,43,58,56,51,51,38,45,45,51,41,42,58,40,54,44,46,43,35,49,51,51,45,50,48,39,37,55,48,33,49,46,39,29,40,58,49,63,44,47,36,26,65,44,43,46,37,51,46,35,49,39,51,42,36,43,61,50,48,42,56,24,43,31,50,50,53,44,41,42,43,51,66,58,48,54,52,72,46,52,46,52,64,72,53,67,76,67,53,55,53,45,62,63,45,59,57,53,54,34,44,53,39,40,48,49,40,30,31,41,41,44,28,35,29,41,40,29,53,45,44,32,26,16,48,31,19,28,39,20,23,32,41,39,33,28,37,45,15,44,39,42,28,30,42,29,45,53,44,44,22,25,12,39,25,24,52,67,105,134,180,226,260,313,356,399,404,406,423,429,430,408,389,355,317,281,246,179,158,127,100,78,78,58,65,53,58,29,34,20,13,30,9,1,19,16,18,4,23,19,-17,-1,1,0,-11,20,-6,-5,6,9,-10,-3,6,6,9,0,-2,10,-20,4,17,8,7,1,1,2,9,10,16,-4,12,1,1,10,-1,5,14,15,28,18,14,18,1,5,6,18,3,34,10,5,25,22,27,1,27,17,24,14,33,16,15,14,9,9,21,11,21,20,11,26,22,25,14,19,29,41,22,30,35,23,24,37,26,32,31,35,31,31,44,32,23,36,35,22,44,30,46,22,37,42,30,33,34,20,34,37,36,30,32,38,26,37,35,26,40,23,37,48,42,43,44,51,39,55,45,41,35,47,55,70,37,57,58,50,38,57,55,45,68,74,68,62,53,69,60,45,63,48,72,65,44,58,55,55,49,50,57,55,44,59,58,58,37,58,53,59,52,68,59,59,43,53,44,54,50,40,50,52,37,65,35,66,57,37,27,53,49,42,46,54,51,46,62,47,56,45,39,48,44,40,48,56,55,39,46,44,39,41,31,36,45,30,50,42,44,47,31,58,47,46,49,59,51,47,44,40,55,66,56,45,49,44,53,47,52,67,49,44,55,47,SampleRate:500/TimeStamp(20)/TimeStamp(120)/Beep_Pulse(236)/TimeStamp(220)/TimeStamp(320)/TimeStamp(420)/HeartBeat_Dominant(223)
2004-09-15 08:12:56,51,28,46,49,42,68,46,62,50,56,51,44,55,51,59,65,60,59,55,45,47,67,62,60,64,63,65,61,66,56,60,36,46,51,50,25,46,49,42,39,56,45,36,42,39,44,33,30,27,35,27,36,37,44,42,43,37,38,33,36,32,41,34,47,45,39,52,44,37,35,42,45,36,26,54,32,43,41,45,53,43,40,53,23,39,45,37,48,31,20,18,11,27,52,79,95,118,169,221,256,311,364,395,394,437,427,413,419,433,389,355,336,293,249,194,161,119,122,88,94,62,59,39,35,51,38,25,18,9,0,6,4,16,9,-3,-11,1,22,-9,7,-15,-3,-15,-5,9,-6,14,-3,-9,-2,-10,2,-8,5,-13,4,2,-13,15,-1,9,7,4,-7,10,-4,6,21,8,20,-7,3,-6,-3,10,-14,-21,29,7,28,9,25,2,10,23,9,13,25,28,20,2,18,26,26,22,31,25,31,17,9,27,20,20,14,31,25,22,16,32,17,23,24,22,18,27,45,31,32,32,33,15,45,31,44,23,39,20,34,20,18,18,30,32,36,32,12,27,49,38,30,34,45,26,38,37,26,56,52,36,40,36,41,60,41,38,52,40,40,63,51,33,47,48,45,54,50,41,55,33,57,55,56,53,57,50,76,85,71,67,54,67,54,67,67,75,60,72,60,75,63,67,51,41,54,64,52,52,64,80,55,73,72,60,57,51,62,61,51,77,57,74,64,63,42,46,57,57,61,50,48,60,29,58,47,62,55,38,41,55,67,46,34,61,48,42,56,58,38,35,52,39,42,53,42,42,53,64,54,38,57,57,43,52,46,52,50,48,59,56,48,35,43,38,43,41,31,50,27,52,53,45,41,56,39,50,32,50,52,37,59,59,44,39,51,45,47,77,80,62,51,67,71,66,55,50,57,61,54,59,49,61,54,48,78,90,64,50,53,51,50,49,46,60,46,55,54,58,53,46,54,45,54,49,52,43,33,52,43,43,34,30,32,33,44,37,41,49,26,47,45,29,31,30,40,35,36,39,44,27,34,54,54,49,40,34,38,41,42,55,49,36,32,48,54,33,40,31,19,21,41,49,44,77,117,132,201,251,289,332,383,418,440,449,456,451,440,413,398,354,331,275,229,208,160,136,128,89,82,79,53,SampleRate:500/Beep_Pulse(114)/TimeStamp(20)/TimeStamp(120)/TimeStamp(220)/TimeStamp(320)/Beep_Pulse(492)/TimeStamp(420)/HeartBeat_Dominant(102)/HeartBeat_Dominant(479)
2004-09-15 08:12:57,40,41,45,46,47,44,16,42,29,18,12,4,30,23,-6,14,11,9,10,2,11,16,-9,9,12,16,14,8,12,2,19,-9,17,-8,-11,3,15,-10,12,9,13,9,8,17,9,5,20,-4,8,25,-8,3,18,14,31,14,21,17,19,27,22,15,24,6,1,26,45,17,26,27,33,27,10,18,14,35,10,13,26,43,20,23,32,37,39,43,27,32,29,25,28,25,18,27,40,45,22,28,26,49,41,32,42,41,23,14,52,25,25,36,20,30,28,45,18,26,27,29,40,43,38,52,25,36,41,31,43,63,61,43,37,33,52,46,54,50,48,48,50,60,48,56,68,65,66,59,67,74,55,64,66,80,76,69,72,81,82,79,78,83,91,63,76,78,75,71,66,89,76,71,82,65,69,67,71,78,64,71,52,72,65,75,48,92,61,78,64,80,73,71,63,62,72,60,60,57,72,47,77,74,64,47,72,60,60,56,64,55,55,72,58,68,32,43,61,57,54,50,58,70,25,49,60,58,58,49,58,62,50,29,63,58,41,59,53,43,57,42,53,42,36,32,42,44,35,50,36,51,43,44,41,57,53,66,52,54,48,46,65,52,56,57,74,67,54,59,80,82,70,77,65,73,71,75,76,67,73,58,69,81,71,68,56,67,61,71,54,53,44,58,54,51,40,41,57,51,61,45,47,54,38,44,53,48,38,50,41,54,40,42,54,31,40,54,42,46,57,57,47,41,25,31,57,39,50,47,51,45,50,42,42,46,40,47,34,61,34,30,47,41,39,40,35,36,26,56,26,29,29,47,49,96,127,200,242,299,331,407,417,451,442,479,467,445,444,415,380,338,299,245,220,159,149,121,118,76,81,83,52,39,40,43,49,33,29,8,0,20,29,18,-17,0,19,6,14,-11,7,1,3,11,-5,-1,4,3,-14,1,-7,1,0,-13,-24,-5,-6,8,-11,-9,-5,1,4,6,-5,-14,20,18,6,14,-2,10,-6,6,-5,0,7,8,13,7,-2,20,2,-7,-12,9,12,12,23,2,19,4,-1,16,5,18,9,28,31,2,14,5,21,10,1,18,13,-1,11,15,-4,15,20,7,17,18,-10,23,13,8,22,13,28,19,4,10,12,7,25,33,25,36,24,21,7,26,8,12,11,26,12,40,32,18,SampleRate:500/TimeStamp(20)/TimeStamp(120)/TimeStamp(220)/Beep_Pulse(370)/TimeStamp(320)/TimeStamp(420)/HeartBeat_Dominant(356)
2004-09-15 08:12:58,11,13,1,30,31,30,45,39,23,21,23,26,30,15,35,48,23,26,43,41,39,33,50,51,51,55,38,54,44,57,46,47,47,40,56,59,50,71,51,50,46,73,48,45,40,52,59,49,63,46,49,71,40,50,36,44,48,46,46,22,43,53,33,39,59,47,54,40,40,54,58,49,42,43,40,58,46,47,51,55,53,43,44,49,40,31,60,51,55,41,37,33,42,22,47,43,31,43,47,43,32,20,29,39,33,40,27,40,51,37,23,60,45,37,40,33,28,41,51,33,16,35,58,18,27,25,49,27,39,33,33,22,41,34,44,49,55,53,43,34,51,38,43,53,74,42,57,60,63,53,59,40,48,37,61,57,78,62,64,47,54,40,48,51,37,37,40,52,33,43,59,43,35,48,41,21,33,32,30,18,28,36,22,38,30,22,27,41,34,33,41,17,36,33,34,33,25,36,7,24,23,34,21,23,36,30,18,31,21,37,27,35,16,32,21,27,26,31,22,36,22,16,9,-3,16,41,42,66,110,142,181,216,248,293,341,393,389,410,405,410,411,402,380,326,287,280,231,173,142,110,80,65,74,60,52,54,40,29,22,17,8,10,-2,1,2,0,-3,-9,-8,-9,-18,-11,-6,3,-9,4,-16,-19,-9,-21,-13,2,0,-19,16,-13,-4,-15,-7,-13,-14,10,-11,-16,-15,7,4,-3,-16,3,-2,-14,6,-7,-8,5,-20,6,-5,-6,-15,2,1,-11,1,-5,7,0,7,7,-4,14,4,5,18,16,-3,5,13,4,3,11,7,25,0,11,-4,5,4,17,3,9,-5,8,16,-5,34,31,21,14,13,24,17,6,30,9,25,24,9,5,12,16,22,19,29,42,34,41,50,39,31,21,18,24,22,30,33,20,35,13,14,31,40,28,20,34,43,23,19,16,41,34,22,44,35,49,57,41,67,35,33,43,47,30,51,45,48,46,67,55,61,74,54,57,46,36,52,64,49,53,63,56,37,44,58,45,58,50,40,51,50,43,49,50,39,54,49,25,46,53,42,44,44,67,40,56,41,60,41,46,38,47,54,34,24,68,47,51,47,40,43,42,40,31,45,44,56,37,29,37,40,52,41,47,22,39,58,51,49,51,40,50,43,48,52,34,33,49,41,43,28,26,52,47,34,33,31,30,35,32,SampleRate:500/TimeStamp(20)/TimeStamp(120)/Beep_Pulse(246)/TimeStamp(220)/TimeStamp(320)/TimeStamp(420)/HeartBeat_Dominant(232)
2004-09-15 08:12:59,47,28,24,28,24,34,23,40,59,34,45,44,46,62,61,40,56,56,53,51,50,45,48,41,52,56,44,46,54,47,67,62,45,52,70,52,48,37,49,34,47,47,51,60,48,43,33,42,37,35,38,21,13,9,30,20,22,18,16,16,26,29,20,24,27,20,15,10,24,19,15,29,22,17,31,27,9,24,25,14,27,13,19,20,35,35,27,19,9,29,8,25,14,14,6,25,0,4,10,8,16,18,42,62,111,168,201,252,284,339,369,386,400,390,424,429,400,382,370,321,309,236,192,173,118,110,84,78,61,62,47,45,26,32,33,-2,24,5,-4,-12,2,-15,-14,1,-12,-23,-1,-7,4,-26,-13,-10,-18,-25,-14,-19,-1,-21,-9,-6,1,0,-17,-11,0,-15,-18,4,10,-9,-8,-12,0,5,10,-6,-10,-1,-13,-19,0,-10,-8,-14,3,2,8,4,14,-4,8,-4,-9,5,8,7,-2,4,3,-20,1,4,12,2,16,15,-1,5,7,3,10,-4,6,30,3,18,-1,9,19,22,14,9,17,28,26,7,8,9,8,1,19,10,34,19,14,3,35,12,9,22,17,41,26,25,25,9,12,26,26,32,1,19,25,41,33,27,25,26,18,26,24,25,16,29,22,27,24,33,40,47,32,33,33,43,32,51,62,50,58,51,42,45,39,66,47,48,60,57,58,52,61,48,53,51,67,55,51,53,43,49,58,34,51,48,43,46,57,52,57,61,46,24,47,55,48,49,28,46,60,44,34,55,51,55,59,44,50,43,52,30,43,52,48,49,45,38,38,45,48,20,40,44,30,37,35,34,52,43,32,30,36,30,60,41,48,32,31,45,51,31,23,33,36,38,26,59,38,49,45,33,50,39,35,39,35,32,33,31,30,42,22,48,46,47,46,53,27,43,49,32,49,50,35,44,52,73,49,57,47,54,43,68,57,54,41,46,37,45,56,58,43,72,62,57,51,54,41,38,30,10,41,42,44,34,44,39,32,38,26,29,39,23,34,50,22,39,28,28,6,20,24,17,16,27,35,40,35,34,26,29,20,28,30,31,14,20,36,6,20,29,8,20,26,28,22,23,26,22,38,24,19,12,15,16,-2,4,17,6,16,28,52,92,130,182,199,274,327,355,384,418,418,421,433,429,397,385,349,314,271,222,SampleRate:500/TimeStamp(20)/Beep_Pulse(122)/TimeStamp(120)/TimeStamp(220)/TimeStamp(320)/TimeStamp(420)/HeartBeat_Dominant(112)/HeartBeat_Dominant(487)
2004-09-15 08:13:00,184,144,101,70,65,71,53,35,49,33,25,22,11,16,10,1,20,0,4,-7,13,-12,-10,1,-19,-19,-13,2,-11,-31,-6,-8,-4,6,-12,1,-15,-10,0,-2,-6,-6,-5,-20,-19,-3,7,-5,8,-12,-8,12,-12,-4,19,-19,14,2,-2,0,3,-3,0,1,13,7,-10,-3,-3,9,7,3,11,2,-2,9,-2,10,5,15,21,22,0,30,4,13,16,5,19,23,5,26,22,18,26,19,7,35,23,21,14,0,28,12,23,34,24,16,22,20,26,33,18,33,23,36,25,18,22,26,32,25,29,30,10,42,23,40,28,8,31,11,25,39,43,29,28,36,40,34,35,32,35,55,40,57,33,38,37,38,43,42,44,50,46,38,58,52,48,55,50,64,72,59,56,52,67,78,66,56,69,50,49,49,53,53,67,72,41,43,51,61,52,70,45,48,53,58,47,53,60,51,49,51,38,45,45,51,38,46,42,54,47,45,45,41,63,65,45,55,57,45,41,52,41,44,47,46,53,39,41,49,30,37,56,52,45,40,49,41,43,73,52,57,57,35,51,60,46,55,39,55,55,66,36,40,54,33,41,27,46,57,44,45,46,63,46,62,60,56,47,59,50,67,65,77,64,57,64,58,59,55,83,71,58,66,65,75,77,70,61,82,60,60,75,54,70,62,71,39,73,63,61,69,55,49,60,46,42,43,49,37,65,60,51,46,53,41,50,37,42,39,45,37,48,51,45,49,49,57,44,22,43,55,40,62,39,43,49,38,43,53,57,32,49,50,52,35,48,48,55,54,50,54,60,48,49,50,37,40,21,23,19,26,41,47,80,68,126,164,236,257,322,381,437,458,476,474,475,438,445,422,395,350,301,245,216,183,149,131,95,108,88,67,64,59,44,45,33,38,37,19,16,22,18,6,10,-26,6,-8,-1,21,13,2,-4,-15,23,-7,3,7,-15,-4,7,3,3,15,-6,8,-4,-9,-13,4,3,-5,7,-1,5,8,17,9,24,-9,14,18,-2,15,12,18,12,26,25,29,-4,29,26,25,10,7,10,10,19,26,14,27,1,8,8,19,12,8,27,8,28,25,29,32,34,26,21,25,31,22,29,23,18,32,33,32,31,19,37,22,12,25,14,17,32,23,34,24,22,22,26,35,31,32,39,32,28,23,SampleRate:500/Beep_Pulse(0)/TimeStamp(20)/TimeStamp(120)/TimeStamp(220)/Beep_Pulse(376)/TimeStamp(320)/TimeStamp(420)/HeartBeat_Dominant(362)
2004-09-15 08:13:01,32,28,48,31,16,41,43,33,34,39,29,38,51,22,39,31,45,38,33,42,68,30,49,30,55,46,48,29,43,44,50,52,43,67,52,51,59,69,66,64,58,70,75,72,52,56,66,58,47,44,39,53,57,65,54,52,62,47,58,56,58,49,34,58,51,60,48,52,52,59,35,59,62,53,53,48,47,40,45,44,44,38,42,40,54,43,69,29,48,41,46,44,50,47,47,37,62,43,48,31,49,38,41,42,45,54,47,46,48,48,46,47,34,35,52,38,38,52,39,47,43,63,45,51,59,44,52,52,54,74,43,60,55,40,41,52,46,38,32,37,52,52,64,59,65,59,79,65,52,46,72,69,49,52,68,55,55,64,70,39,60,85,64,55,64,63,45,51,55,40,36,39,45,38,38,50,45,43,30,36,42,50,35,24,34,39,33,16,30,34,29,34,0,33,29,36,19,40,32,9,26,19,26,15,27,39,33,40,39,32,8,12,20,23,22,25,18,25,29,25,7,36,17,23,14,18,28,16,8,25,28,43,60,95,144,199,244,284,325,396,381,437,431,436,438,412,412,393,350,283,257,206,188,152,125,82,83,66,54,73,47,46,17,30,28,7,9,20,-1,4,8,-7,3,-4,14,-7,-2,-9,-6,-4,-16,-5,0,4,-13,1,-18,0,6,14,-10,-32,-2,-19,5,-13,-10,-20,-12,-9,-11,5,-6,-5,11,5,-4,0,-21,0,5,9,-20,-3,-7,-2,-10,1,22,15,6,5,-1,17,10,2,21,10,5,-4,9,-7,-10,2,17,7,19,9,9,12,27,-3,2,13,4,0,7,27,4,7,20,28,13,36,34,21,20,11,16,20,9,14,13,8,23,27,28,21,9,0,14,28,14,26,32,13,48,45,33,45,40,39,35,11,32,36,30,25,25,32,22,44,42,39,27,44,39,51,41,42,36,38,41,45,39,50,52,52,42,61,40,56,50,54,63,64,61,46,73,60,67,64,48,49,56,46,52,66,48,52,59,50,42,74,56,57,58,46,55,54,53,43,56,52,64,53,48,57,45,48,48,31,52,52,50,64,50,26,45,53,58,49,37,43,37,59,45,38,46,43,61,27,37,43,37,33,38,53,30,43,34,36,49,33,35,42,34,28,44,33,46,45,48,35,50,38,36,39,41,32,SampleRate:500/TimeStamp(20)/TimeStamp(120)/Beep_Pulse(252)/TimeStamp(220)/TimeStamp(320)/TimeStamp(420)/HeartBeat_Dominant(238)
2004-09-15 08:13:02,15,31,15,41,29,38,42,47,43,60,45,48,44,46,44,47,42,55,70,50,53,45,52,60,42,50,44,57,57,43,47,72,51,58,55,65,49,38,53,38,49,41,50,47,39,27,64,48,49,40,47,35,63,48,44,36,47,39,13,28,30,32,25,45,10,22,26,25,23,31,10,23,22,50,14,42,44,33,21,34,33,38,20,32,32,35,17,30,29,29,18,30,41,26,29,35,23,18,8,27,7,23,24,25,52,43,82,152,157,211,254,306,363,388,410,431,432,433,427,395,386,341,300,270,240,207,148,114,104,89,58,57,66,52,45,37,4,8,15,10,-6,9,-4,-4,1,-12,-6,4,-19,-20,-12,-8,-16,-12,-10,0,-4,-5,-22,0,-5,-26,-23,-1,-19,2,-10,-11,-6,-4,-16,-5,-7,8,9,-14,12,-21,-13,-3,-5,1,-1,-14,-3,8,5,13,5,8,6,-1,7,3,8,12,-2,-10,1,-4,-3,34,-3,25,15,0,12,19,5,7,-12,5,-1,7,-10,4,11,11,7,-1,29,7,3,20,2,22,12,28,15,6,24,26,14,15,27,22,24,14,29,28,31,34,25,16,28,22,24,20,5,11,21,28,4,14,42,23,36,16,21,41,20,41,33,32,38,34,31,36,38,30,24,28,22,36,57,44,44,46,46,35,48,42,33,44,58,33,49,66,58,56,51,32,54,39,37,47,65,67,49,38,45,37,54,45,62,54,51,46,51,47,49,36,32,41,39,27,41,53,37,40,40,51,25,47,49,43,56,38,39,45,39,48,55,25,56,41,35,50,44,37,42,40,17,47,57,34,47,54,33,47,50,53,46,52,37,42,30,33,33,27,30,36,28,29,41,34,37,56,41,37,46,26,58,31,49,36,45,35,35,23,23,17,36,54,39,47,40,60,42,39,51,58,53,49,66,56,57,42,42,48,47,45,36,22,59,53,68,47,55,66,52,56,50,43,49,42,63,40,34,30,36,43,41,53,48,46,42,36,22,30,27,20,31,9,16,34,13,29,20,29,15,19,39,37,14,22,44,16,6,18,15,37,47,36,22,26,26,24,31,26,18,28,22,25,17,32,34,37,16,18,39,17,23,10,34,22,29,27,53,51,82,135,171,237,274,324,368,395,420,434,440,424,405,393,380,358,292,253,220,174,SampleRate:500/TimeStamp(20)/Beep_Pulse(124)/TimeStamp(120)/TimeStamp(220)/TimeStamp(320)/Beep_Pulse(498)/TimeStamp(420)/HeartBeat_Dominant(111)/HeartBeat_Dominant(488)
2004-09-15 08:13:03,155,126,93,79,48,61,32,56,27,46,30,24,4,-3,7,1,4,-6,-7,-1,-5,-8,-13,1,-2,-21,-7,0,9,-11,-14,-14,-3,-6,-11,-5,-6,3,0,0,-19,-11,-3,3,7,-13,5,-11,1,-13,-13,-22,1,7,5,13,5,-8,6,21,11,-8,1,-9,-1,-3,4,-21,-1,-10,-5,2,2,1,22,0,1,4,13,7,3,21,-1,7,11,8,24,1,18,3,0,5,8,17,11,25,32,13,24,15,5,9,26,27,8,20,32,6,31,47,18,35,16,30,36,31,31,14,19,14,14,20,22,22,29,19,19,29,31,16,37,28,33,39,33,31,33,23,22,36,43,30,25,45,62,29,36,24,37,40,40,34,31,61,31,42,31,45,47,49,53,52,57,62,46,61,61,67,53,47,51,42,58,53,33,47,50,41,28,39,44,67,38,39,39,47,56,53,36,38,45,38,37,44,48,53,50,49,48,25,29,32,24,32,38,42,30,40,43,33,28,40,55,46,48,56,37,54,67,35,48,45,42,53,53,33,49,47,22,32,42,28,46,57,58,35,57,58,42,27,48,41,40,30,43,52,30,47,40,24,36,34,40,67,40,45,41,42,36,42,47,43,51,48,48,54,36,48,54,60,68,56,53,53,65,60,61,43,48,42,53,62,52,58,56,61,50,52,61,55,34,48,43,26,54,44,43,48,45,41,36,44,48,40,42,27,34,19,12,29,30,24,31,25,35,39,36,32,39,34,26,39,31,37,28,48,24,28,32,34,50,34,14,21,29,20,34,40,26,27,31,45,37,30,48,42,42,20,16,17,18,39,48,80,100,157,207,254,310,341,383,434,435,456,467,449,432,416,364,328,302,257,204,172,152,124,90,92,63,53,44,38,45,27,26,6,19,2,-1,5,18,-10,-13,-7,1,-2,-3,-9,7,0,3,0,-2,4,2,-2,0,-9,0,13,-16,-9,6,-16,3,5,-4,-3,0,2,17,-4,17,1,10,7,2,-3,18,0,13,15,11,0,16,23,5,3,7,17,13,13,26,26,11,10,17,20,10,26,5,17,27,15,14,14,31,18,32,25,36,9,18,28,14,30,32,20,20,20,35,11,20,34,14,26,29,19,17,30,34,30,35,41,45,31,21,29,30,43,9,41,34,34,33,46,16,26,21,29,SampleRate:500/TimeStamp(20)/TimeStamp(120)/TimeStamp(220)/Beep_Pulse(372)/TimeStamp(320)/TimeStamp(420)/HeartBeat_Dominant(357)
2004-09-15 08:13:04,27,33,33,21,42,33,37,25,29,46,23,48,42,51,39,33,48,34,42,36,39,37,44,58,55,33,71,44,59,65,58,66,56,78,52,82,60,69,73,56,63,63,66,59,82,62,62,57,46,62,64,54,42,61,58,67,47,43,46,49,43,56,53,40,53,63,31,37,53,45,66,49,63,43,60,37,42,42,58,44,64,34,54,48,57,58,64,51,46,48,42,50,58,50,43,54,60,51,41,41,49,42,51,60,30,28,35,37,36,41,47,31,44,19,42,47,26,51,32,38,43,52,39,42,27,44,32,18,34,51,55,44,52,46,54,42,59,56,46,67,53,57,50,64,62,67,64,56,59,58,39,20,55,69,53,62,51,59,64,42,46,37,50,43,45,48,39,50,42,50,38,44,55,35,34,41,44,29,19,35,35,39,23,22,22,35,34,15,21,23,38,35,36,28,33,51,23,29,32,24,26,18,34,33,33,16,31,19,20,18,20,20,26,29,32,34,38,32,35,30,22,3,21,30,35,49,63,97,111,179,223,269,323,380,411,437,436,431,442,456,412,390,353,318,276,221,191,167,120,103,63,59,61,51,51,47,38,31,17,17,11,11,0,10,13,11,14,5,-4,5,-26,-16,-23,-6,-11,-19,-15,-9,-30,-4,-12,-9,-11,-1,-6,-19,-13,-2,-16,-13,-2,-3,-14,6,10,-11,-21,-23,-13,-3,10,-7,-23,6,4,5,-6,14,0,2,3,2,7,11,17,4,5,-6,2,-1,-4,6,11,30,13,4,24,-6,6,4,18,18,-4,12,20,7,4,11,32,24,18,26,22,15,1,2,12,3,12,16,8,22,7,13,13,16,23,25,10,37,26,17,23,25,7,14,23,25,17,29,28,40,20,17,40,38,9,23,46,14,33,48,29,27,33,34,45,47,25,35,41,27,48,38,33,53,45,25,51,45,42,47,61,58,66,45,44,57,62,60,51,41,50,77,66,75,72,55,53,59,53,44,53,60,53,50,55,59,63,48,61,46,48,39,54,59,49,51,45,49,44,46,46,51,41,45,52,44,27,47,51,52,36,35,43,72,50,66,54,50,57,45,41,38,43,48,40,68,41,48,47,36,41,66,41,51,47,48,44,47,45,25,33,45,56,22,46,39,41,35,38,64,29,51,27,30,42,38,47,48,SampleRate:500/TimeStamp(20)/TimeStamp(120)/Beep_Pulse(246)/TimeStamp(220)/TimeStamp(320)/TimeStamp(420)/HeartBeat_Dominant(231)
2004-09-15 08:13:05,34,44,57,53,44,68,53,48,42,53,42,44,50,60,72,43,57,51,52,60,69,40,56,53,46,66,43,63,53,58,74,51,38,52,66,44,59,47,57,40,38,34,40,53,48,39,43,53,40,35,34,44,30,41,29,23,35,25,32,47,12,35,36,32,37,45,19,31,32,25,20,42,30,19,24,23,36,29,36,9,31,23,15,33,38,44,29,27,28,33,38,31,40,12,19,33,17,39,55,60,98,146,194,221,281,326,357,392,402,400,412,415,420,393,369,350,317,271,235,198,132,112,101,83,81,62,47,50,57,32,19,28,22,28,18,0,5,4,-8,16,9,22,3,15,-22,15,-10,9,-3,-14,-1,3,-2,7,10,-10,-7,-10,4,13,-3,15,4,1,8,-11,1,-2,-8,15,-4,-2,4,9,14,8,-5,-14,-9,-8,10,11,18,2,13,0,-22,-10,-20,2,17,0,10,-8,23,5,9,0,10,9,1,-8,11,-3,2,21,16,14,8,20,11,26,8,17,26,0,18,16,14,24,13,23,28,23,26,28,28,24,2,40,10,15,38,0,23,16,10,16,-1,11,14,14,22,33,18,23,4,38,28,22,20,34,37,45,28,23,19,24,42,30,40,30,30,43,52,28,23,34,38,36,47,44,38,32,38,44,47,65,52,28,63,53,28,50,59,61,62,63,52,36,54,46,54,52,32,53,46,54,49,53,60,46,44,44,56,58,45,50,56,24,48,44,40,42,36,51,44,38,31,39,42,42,52,35,49,24,52,25,30,58,42,43,28,33,38,53,49,38,27,34,57,39,34,25,24,46,37,31,41,39,42,54,54,54,26,49,56,28,39,29,37,44,38,32,59,39,50,37,24,37,48,53,40,29,35,45,32,27,42,30,45,72,50,31,57,59,46,54,45,56,41,61,48,44,44,63,54,28,38,61,46,49,47,58,51,40,41,37,43,52,50,43,40,51,27,49,49,45,25,22,38,49,31,39,34,28,31,39,35,35,18,18,26,22,31,54,25,34,26,36,33,31,33,33,29,26,25,14,28,23,22,31,35,33,35,32,22,28,19,42,31,30,33,17,18,15,20,15,26,20,34,44,53,96,137,196,233,270,318,351,372,399,418,421,432,397,415,375,341,312,266,214,183,165,106,97,82,48,35,48,SampleRate:500/Beep_Pulse(118)/TimeStamp(20)/TimeStamp(120)/TimeStamp(220)/TimeStamp(320)/Beep_Pulse(492)/TimeStamp(420)/HeartBeat_Dominant(105)/HeartBeat_Dominant(475)
2004-09-15 08:13:06,54,41,34,16,12,17,15,21,-6,19,10,7,12,-7,0,1,-24,-5,-6,1,-4,6,1,8,3,-1,-12,6,-4,-24,-5,-4,6,13,5,6,3,-23,-2,2,-16,17,1,5,12,-3,-16,12,5,23,8,20,10,12,2,14,16,-4,-9,13,7,9,4,8,7,10,-11,15,-5,1,17,13,16,6,21,23,3,18,31,12,23,5,28,23,17,15,29,28,25,20,5,19,26,25,22,10,25,6,24,17,15,16,25,20,20,24,18,33,40,25,12,12,40,25,17,29,30,21,33,32,35,32,44,48,27,29,40,33,39,27,35,31,31,33,39,40,42,46,29,37,68,32,39,48,25,46,52,46,34,45,52,48,50,64,62,48,48,62,58,47,51,46,37,75,78,39,51,45,56,56,45,70,42,51,61,38,38,60,40,51,53,49,30,51,59,62,41,62,33,38,36,49,61,60,47,60,47,48,39,44,41,52,42,34,52,53,17,45,50,26,45,47,33,52,31,24,41,32,48,44,36,32,23,35,44,18,24,22,32,32,41,42,33,45,25,26,25,43,37,27,33,36,47,26,45,27,49,40,33,26,35,57,49,63,59,53,55,29,49,48,50,52,50,47,51,42,52,59,43,51,52,43,32,57,41,44,54,37,55,38,38,45,44,37,54,43,51,54,41,63,52,27,35,47,52,36,61,34,33,9,17,18,23,22,27,17,27,7,32,34,29,29,39,29,14,36,39,28,24,37,35,29,36,50,12,38,34,21,35,39,27,25,26,33,12,31,33,28,14,22,23,19,24,4,38,29,62,86,135,184,213,287,320,367,393,426,445,431,442,423,390,369,346,304,257,225,183,153,122,117,78,72,60,61,33,30,41,38,10,10,18,6,10,9,-13,-23,-9,-15,-25,-15,5,4,-9,-4,-23,-13,-21,-12,-22,-21,-13,-25,-20,-9,-2,-4,-14,-21,-6,-15,-19,-6,-16,-12,-9,8,-6,14,-7,-2,-4,-3,-9,1,-10,4,10,-1,13,5,-11,-3,5,-7,3,14,7,-1,-4,4,3,-4,15,7,9,20,0,8,6,18,18,25,15,14,23,24,21,14,4,11,10,9,3,25,8,28,26,15,6,10,17,0,29,28,11,30,29,18,28,25,25,22,18,21,47,28,13,14,24,20,33,31,39,18,40,40,33,29,34,45,SampleRate:500/TimeStamp(20)/TimeStamp(120)/TimeStamp(220)/Beep_Pulse(366)/TimeStamp(320)/TimeStamp(420)/HeartBeat_Dominant(351)
2004-09-15 08:13:07,40,23,33,39,24,46,47,54,42,49,21,34,51,62,59,34,59,41,44,63,56,58,58,60,56,81,64,69,61,59,66,65,66,62,85,49,72,75,67,61,57,51,60,65,78,72,60,61,75,73,61,69,46,66,52,67,41,56,54,59,52,63,59,52,51,57,59,44,34,64,46,51,54,45,55,63,75,43,54,51,42,32,42,50,64,57,59,55,42,47,63,65,64,51,46,62,58,54,46,45,45,47,67,35,38,53,63,58,52,59,53,35,51,40,45,47,53,39,50,33,39,37,55,42,46,58,60,48,49,65,55,62,71,78,66,65,49,59,61,68,64,59,55,54,63,60,58,41,39,67,61,57,58,50,70,64,36,55,45,46,47,52,44,61,50,44,40,58,34,56,41,24,48,30,47,45,39,37,38,44,39,49,26,34,42,46,38,37,40,37,38,35,53,45,37,36,47,34,34,30,39,48,35,40,36,33,25,9,39,36,41,56,52,34,18,21,14,28,43,50,83,117,146,224,259,333,366,419,435,446,443,453,449,449,405,382,366,299,250,191,160,141,101,95,82,51,73,42,33,34,27,17,33,2,5,18,0,2,3,4,-7,6,6,9,-14,-12,-6,-15,2,-2,-11,-7,-22,-13,-13,-30,-3,-15,-18,-8,-9,4,5,3,-9,-9,19,-26,6,-1,5,5,12,0,-4,0,3,13,9,10,8,12,-5,-5,17,5,7,-15,19,-8,3,13,5,2,14,6,19,6,17,-4,19,14,9,15,18,14,17,25,15,26,3,25,37,6,7,-1,6,12,15,10,30,8,12,11,28,9,12,14,28,16,8,35,22,32,13,20,14,23,23,28,30,37,28,23,24,22,23,26,28,21,26,30,37,20,27,39,35,40,29,31,33,38,61,52,54,55,34,31,26,56,47,46,58,38,47,36,36,63,46,48,69,63,55,61,50,81,69,72,40,41,59,72,46,31,51,56,57,41,70,55,48,39,36,40,56,36,38,44,49,42,33,53,49,53,70,40,64,30,59,28,38,50,54,35,60,37,41,43,31,47,42,24,50,48,45,54,34,35,30,41,38,46,57,36,38,45,46,37,23,36,29,37,34,39,49,47,21,28,34,24,30,28,25,29,18,28,37,32,20,26,31,32,45,28,39,36,31,48,38,33,SampleRate:500/TimeStamp(20)/TimeStamp(120)/Beep_Pulse(238)/TimeStamp(220)/TimeStamp(320)/TimeStamp(420)/HeartBeat_Dominant(223)
2004-09-15 08:13:08,39,64,60,36,49,44,42,44,35,39,53,43,46,40,71,41,36,42,39,52,50,53,50,42,35,37,44,40,39,36,26,32,21,35,21,32,30,21,45,46,28,24,38,26,23,38,10,8,18,14,24,17,20,22,11,30,21,10,34,-4,20,11,23,14,7,12,-3,19,19,23,23,10,8,21,15,15,2,21,24,16,12,25,11,29,19,4,14,9,0,-3,7,24,34,33,67,90,126,187,252,274,325,373,391,398,418,416,396,391,383,348,292,269,228,195,159,129,95,61,57,51,38,44,24,42,25,20,6,-9,-3,1,-19,-4,-15,3,-10,-14,-21,-11,-26,-19,-22,-20,-25,-11,-22,-10,-18,-24,-22,-15,-23,-36,-9,-33,-8,-15,-9,-29,3,-11,-24,-9,-21,7,-11,-2,-1,-10,7,-20,-6,-4,-4,2,1,5,-3,-3,6,-10,7,19,1,3,-10,15,13,6,1,9,-7,-23,12,1,5,-2,5,8,-14,18,8,13,14,12,20,2,14,-4,42,18,19,23,0,32,21,18,19,23,12,7,16,21,14,20,18,3,27,26,10,4,21,8,16,25,17,7,14,16,19,29,34,28,29,48,37,20,32,27,19,23,40,38,36,13,29,19,22,32,27,29,33,35,49,28,40,35,37,45,37,41,44,61,55,54,46,40,44,62,38,26,51,55,42,47,37,21,50,64,62,41,48,34,50,42,40,43,58,29,26,36,49,32,40,27,45,51,37,31,21,33,31,38,31,26,49,37,18,33,44,34,50,43,47,48,51,21,13,32,27,33,37,36,38,29,43,45,32,39,20,43,46,50,10,25,45,42,23,25,47,44,34,44,30,45,40,38,19,31,41,19,37,20,15,23,29,43,43,19,23,29,42,33,37,35,52,44,40,57,41,34,58,41,58,36,42,47,53,34,50,59,23,51,37,56,51,65,55,49,49,37,32,33,41,48,29,43,40,33,54,45,28,54,28,37,48,37,26,37,33,15,37,25,34,41,34,19,15,18,17,25,28,36,35,17,17,19,12,29,32,24,27,13,31,26,23,20,9,26,31,16,19,22,36,33,2,33,22,25,24,9,5,16,18,18,20,36,40,69,116,155,180,215,277,318,351,372,403,411,411,413,421,397,362,343,286,253,198,165,138,105,91,62,55,47,47,43,27,37,45,12,SampleRate:500/Beep_Pulse(112)/TimeStamp(20)/TimeStamp(120)/TimeStamp(220)/TimeStamp(320)/Beep_Pulse(486)/TimeStamp(420)/HeartBeat_Dominant(99)/HeartBeat_Dominant(471)
2004-09-15 08:13:09,10,2,-1,6,-14,-4,-8,-14,-4,-3,-25,-1,-8,0,-15,-10,1,-21,-13,-3,-22,-3,-23,-18,-8,2,-13,-8,-10,-28,1,-31,10,-5,-11,-13,-18,-8,-1,-7,-1,-8,19,-7,5,-11,-18,-22,-18,-6,-14,2,-8,-6,2,0,-15,-11,-13,-17,-2,10,3,21,2,3,6,-2,0,-5,7,-16,-1,-4,2,5,4,9,-4,21,16,3,5,19,8,22,9,1,19,25,29,11,16,10,29,28,18,2,16,0,29,15,12,16,21,26,19,8,1,-2,25,34,23,10,15,19,30,19,39,26,23,29,17,16,39,34,23,33,42,26,32,36,35,20,37,23,44,48,50,42,51,42,53,47,53,53,70,40,32,46,68,50,50,64,44,64,57,36,40,31,48,65,32,53,45,49,52,47,54,40,50,51,33,43,41,48,52,47,34,34,44,58,37,61,45,37,50,47,56,69,50,59,42,57,29,52,22,43,48,40,46,31,53,42,42,41,28,35,28,42,53,47,45,41,42,40,31,31,27,36,53,24,40,25,41,39,35,41,32,32,31,32,40,46,38,44,28,29,38,23,43,26,40,52,32,36,38,48,42,24,56,48,58,69,49,49,26,55,61,41,48,60,39,31,45,39,35,51,52,45,46,46,55,57,66,39,48,39,29,42,30,56,25,51,37,50,46,36,46,33,18,39,20,28,42,45,29,14,13,14,26,15,26,32,36,34,32,10,13,24,31,36,38,13,23,16,18,18,25,19,11,10,26,14,31,22,33,38,27,10,6,21,29,27,19,15,19,7,28,26,44,60,118,176,215,274,288,344,388,421,400,424,422,416,406,389,356,309,276,229,186,132,133,104,83,67,52,41,49,34,38,41,26,34,20,7,8,11,-11,-10,-18,-8,-4,-1,2,2,-25,7,-14,-15,17,-2,-6,-16,-16,-4,-3,-11,-20,-3,-18,4,-19,2,2,-18,-5,-1,-7,-27,-8,-21,-14,-21,5,3,-1,-12,-5,-9,-26,-2,12,-12,-8,0,5,0,-2,2,9,-3,3,-6,6,18,0,5,-11,-2,-7,6,2,16,0,1,-14,-2,-9,3,19,12,7,8,15,9,2,9,-2,-4,12,2,-6,6,18,3,6,-15,27,15,-17,4,12,0,-4,4,9,23,11,27,15,15,30,15,24,19,14,13,14,18,42,10,22,18,29,26,19,13,15,9,SampleRate:500/TimeStamp(20)/TimeStamp(120)/TimeStamp(220)/Beep_Pulse(360)/TimeStamp(320)/TimeStamp(420)/HeartBeat_Dominant(349)
2004-09-15 08:13:10,23,19,43,23,32,20,41,31,38,45,45,44,34,36,38,44,66,69,51,37,49,51,46,55,53,50,62,63,44,47,69,54,59,58,56,65,65,59,57,62,48,40,60,38,50,34,41,45,40,66,47,52,40,48,58,34,40,60,35,39,52,30,41,35,35,42,38,53,44,23,32,48,42,37,54,49,23,30,31,36,57,26,33,44,48,28,41,44,26,39,32,40,38,30,44,60,28,36,22,41,46,49,31,33,41,48,35,40,28,19,28,29,43,41,29,43,19,28,37,41,51,46,51,37,41,51,65,39,54,45,47,42,57,70,50,46,51,46,53,50,65,48,53,57,47,47,52,28,35,52,43,54,38,43,36,43,33,34,35,30,43,28,43,28,24,27,16,35,39,29,31,29,32,24,20,30,22,13,25,15,15,18,21,10,20,29,9,40,21,12,22,19,25,20,32,30,18,29,20,11,24,30,26,39,25,22,28,9,14,11,11,28,31,57,83,140,178,231,285,330,378,417,436,442,458,443,437,429,371,330,319,262,221,185,156,111,94,57,64,51,24,51,46,29,34,24,27,17,15,9,6,-3,-3,-7,12,-16,-13,-11,-11,-11,3,-16,-8,-3,1,-1,-23,-10,-15,-22,-20,-10,-13,-7,0,-1,-16,-7,5,-7,7,-9,-3,-15,9,21,9,-9,2,-14,-2,-9,4,2,10,7,4,23,1,-8,-7,-11,-11,6,6,15,-4,21,11,-16,5,13,13,0,9,-1,10,9,5,-4,11,16,19,-5,21,14,16,15,17,17,22,29,27,4,24,24,23,20,39,33,35,35,28,37,49,22,34,22,10,33,45,28,37,32,26,40,39,31,36,34,32,35,25,34,19,33,31,25,13,36,47,46,57,42,45,52,26,35,42,54,44,42,55,60,51,54,54,49,51,49,55,48,72,58,69,81,67,61,53,79,63,69,59,45,75,44,45,71,78,58,62,47,59,54,66,66,49,45,30,46,49,43,61,50,61,43,49,47,47,37,51,49,59,54,47,39,47,39,52,47,40,47,52,49,45,52,53,38,41,43,38,57,43,42,52,54,52,50,45,70,51,55,64,46,56,47,38,39,50,26,35,19,36,46,31,26,47,53,38,23,40,27,26,34,47,30,53,43,33,23,34,50,55,49,47,45,25,43,66,43,SampleRate:500/TimeStamp(20)/TimeStamp(120)/Beep_Pulse(232)/TimeStamp(220)/TimeStamp(320)/TimeStamp(420)/HeartBeat_Dominant(221)
2004-09-15 08:13:11,46,40,62,68,39,61,66,63,50,54,53,50,60,54,66,70,47,68,57,57,38,54,42,47,45,53,44,30,43,28,60,49,49,23,34,55,36,17,27,23,27,28,36,38,31,27,7,29,22,-7,26,23,31,30,16,32,23,33,45,26,10,3,25,29,28,20,16,16,27,15,17,35,23,29,37,41,17,41,10,-7,5,-4,6,-10,12,29,50,55,101,153,187,260,299,365,382,410,426,428,406,425,383,378,343,306,271,213,173,137,115,93,65,60,39,51,48,31,18,10,5,12,-1,-1,-18,-16,-25,-17,-9,-10,-22,-18,-7,-1,19,-24,-21,-17,-7,-15,-11,-34,-24,-16,-3,-16,3,-28,-10,-20,-27,-12,-17,-9,-10,-13,-1,-22,-14,-23,1,-13,-5,-1,-6,-9,-6,7,0,-6,-4,-5,-6,-8,9,5,-3,11,-5,-4,13,4,3,-6,-5,3,8,13,-1,11,22,9,0,-5,5,15,-6,9,6,-8,16,14,9,-1,1,19,26,13,2,8,14,16,20,23,28,5,18,16,6,13,14,24,27,18,18,17,13,17,38,14,24,12,15,17,28,17,8,13,15,28,12,22,17,22,16,36,29,45,21,29,23,33,34,24,54,31,34,46,42,54,40,58,48,51,45,37,33,45,49,31,53,58,63,60,55,44,64,62,64,39,69,57,55,64,53,53,54,45,62,42,50,53,54,56,47,35,36,49,58,58,41,61,37,53,49,45,58,38,57,40,54,31,53,52,43,49,37,44,38,37,44,39,44,37,48,33,53,41,28,45,53,32,35,53,49,16,46,36,45,30,46,26,43,37,54,34,47,32,23,34,32,45,24,28,31,24,59,26,26,23,43,36,29,49,31,42,54,48,53,51,64,43,29,58,35,61,60,38,56,65,51,52,36,48,51,52,37,49,67,55,52,65,50,65,41,55,38,36,44,40,69,32,48,48,48,65,46,34,16,24,36,25,37,14,19,19,28,0,20,20,35,28,33,25,31,15,26,41,12,22,32,18,29,21,13,21,34,35,28,9,8,38,23,21,18,34,20,18,2,37,20,15,22,10,5,9,15,15,40,34,84,107,147,197,246,291,337,363,395,413,423,438,418,419,385,365,331,286,262,204,171,142,108,97,78,66,71,47,59,47,49,56,25,19,30,14,-3,6,-9,-2,7,-1,SampleRate:500/Beep_Pulse(106)/TimeStamp(20)/TimeStamp(120)/TimeStamp(220)/TimeStamp(320)/Beep_Pulse(478)/TimeStamp(420)/HeartBeat_Dominant(90)/HeartBeat_Dominant(466)
2004-09-15 08:13:12,-8,9,-6,-21,-7,-5,-9,-6,-8,-7,-18,10,-16,-1,7,-3,-11,-4,-12,-18,6,3,-7,-1,7,12,-10,-4,-13,-10,-2,-10,-4,10,31,-4,8,-1,-4,23,14,11,-4,16,12,14,3,5,17,11,4,8,5,14,7,20,4,5,15,18,13,7,14,12,10,21,10,25,7,24,19,28,24,20,28,37,29,28,12,21,18,31,36,43,30,37,24,46,2,28,45,33,45,34,34,52,40,28,36,43,42,9,15,38,35,44,34,41,31,47,42,49,57,50,39,44,37,42,48,51,46,29,34,51,43,43,33,36,52,53,53,46,67,61,63,54,53,65,56,72,67,56,55,71,56,53,64,48,71,67,57,89,53,62,60,55,62,57,56,59,79,57,44,53,52,51,61,45,47,45,41,59,59,53,42,50,42,43,41,43,50,44,53,60,51,52,27,54,26,49,38,33,53,36,18,49,43,40,39,40,45,59,58,53,58,48,49,61,41,55,50,68,47,43,45,49,61,45,45,61,43,40,42,52,47,36,30,39,41,39,71,49,47,66,38,47,52,31,59,53,45,83,68,61,42,47,55,48,45,52,46,66,60,48,61,63,54,73,59,34,63,69,53,38,48,27,45,43,33,30,36,50,43,48,58,30,33,25,34,34,37,44,12,33,17,44,25,34,32,4,38,38,34,23,15,17,20,18,19,32,25,26,17,21,20,15,30,23,23,15,35,28,25,32,42,29,30,28,19,25,22,21,15,10,22,21,28,52,85,124,164,224,249,315,349,384,396,414,426,421,418,415,374,364,305,264,232,192,159,121,105,83,71,47,59,48,33,46,28,16,17,26,18,15,6,9,7,-2,14,-19,3,-6,2,-7,-13,-7,6,-4,6,-5,-8,-15,-11,-3,5,0,10,-2,-4,3,-13,16,0,0,-4,15,-9,-4,11,11,6,5,7,0,1,13,1,8,-1,8,18,8,9,21,23,10,10,0,3,20,18,27,23,36,20,9,29,11,11,26,22,24,14,11,11,10,27,10,39,24,29,26,37,24,40,27,30,36,31,48,27,26,15,42,49,25,18,42,36,36,27,34,47,44,54,51,50,36,36,44,32,62,40,38,38,43,38,55,36,60,48,52,50,53,32,62,47,48,36,46,37,57,43,47,49,64,51,59,35,55,SampleRate:500/TimeStamp(20)/TimeStamp(120)/TimeStamp(220)/Beep_Pulse(346)/TimeStamp(320)/TimeStamp(420)/HeartBeat_Dominant(335)
2004-09-15 08:13:13,62,64,60,73,60,52,66,78,75,58,84,52,77,68,67,46,64,68,59,77,70,48,66,71,71,62,74,78,43,57,59,65,55,52,74,49,38,58,56,62,52,61,61,45,43,39,36,47,69,59,57,52,64,47,45,52,51,55,49,51,37,41,43,66,43,55,43,58,44,68,50,57,31,45,54,41,39,59,18,50,37,44,38,51,51,39,50,55,40,40,59,58,56,50,47,43,29,47,37,43,30,69,57,54,52,45,42,49,57,68,68,76,61,64,69,54,52,61,58,48,52,60,78,71,64,42,46,57,62,68,43,60,51,44,43,49,54,50,34,35,52,51,53,45,35,25,32,34,53,31,30,15,36,31,14,43,38,33,28,13,32,37,23,36,22,21,36,24,19,35,31,30,36,29,27,36,34,16,35,20,7,38,23,12,23,24,29,37,22,33,34,17,26,22,40,30,58,86,125,151,203,254,302,356,391,411,421,429,443,429,411,405,373,319,304,254,188,170,128,114,107,82,68,45,61,42,33,35,32,18,0,27,12,8,0,15,-2,5,4,-2,-5,-9,-7,-5,-14,18,-7,-2,-6,-9,3,-18,-7,-14,3,-3,6,1,-3,-1,-19,14,11,-6,8,-2,13,-6,-5,-1,14,2,13,15,18,2,16,20,8,5,9,17,14,23,15,17,14,10,-2,15,10,10,19,5,16,6,16,15,27,21,20,15,36,39,20,37,34,22,34,28,21,41,31,13,39,20,33,15,28,21,33,27,44,21,40,25,40,24,32,45,37,28,34,43,38,44,24,33,25,40,25,41,36,32,39,36,51,37,48,47,57,52,55,36,59,49,55,45,59,55,56,52,39,41,39,65,63,36,46,37,42,66,66,63,73,55,62,66,60,61,76,74,87,78,66,66,75,74,69,85,70,55,71,57,80,75,58,64,81,41,87,60,46,56,54,63,68,51,55,52,76,72,51,51,63,43,41,57,54,56,58,41,55,48,55,58,49,61,62,50,41,43,50,54,38,49,54,47,61,68,59,57,54,37,38,45,47,51,51,38,66,56,39,59,43,35,54,44,40,56,34,50,48,58,29,59,54,40,56,54,48,58,48,48,68,54,58,49,68,59,84,56,73,83,67,65,71,58,68,65,66,62,56,41,75,66,60,67,75,53,SampleRate:500/TimeStamp(20)/Beep_Pulse(216)/TimeStamp(120)/TimeStamp(220)/TimeStamp(320)/TimeStamp(420)/HeartBeat_Dominant(203)
2004-09-15 08:13:14,52,44,48,48,48,44,28,29,57,47,47,54,42,53,53,35,49,55,53,31,27,46,33,42,42,34,33,43,32,13,22,46,22,33,34,35,19,19,33,23,22,36,36,51,40,27,34,28,37,41,39,29,39,24,18,34,40,26,41,48,43,16,15,16,30,28,58,52,104,158,189,251,304,361,395,412,440,471,474,453,446,407,399,341,296,240,227,154,130,108,103,83,60,54,50,36,36,27,12,20,17,-8,14,15,3,-4,-10,1,14,-5,1,5,-5,1,3,-8,9,-10,0,-9,-20,9,-8,-2,-6,-18,-17,-4,-17,-13,2,-10,-2,-20,-9,-1,-21,2,-1,11,-8,6,12,-2,13,-14,11,7,2,4,4,-7,13,7,5,23,4,12,4,7,-1,0,11,12,5,1,5,11,14,13,18,-3,15,23,2,21,5,-14,14,20,13,31,2,37,1,26,26,17,12,24,15,34,39,32,25,25,17,43,33,15,26,22,27,31,16,42,9,22,24,14,28,37,31,37,32,45,25,19,37,32,39,42,37,43,37,36,40,33,36,45,27,28,34,53,51,37,55,39,59,50,44,39,59,40,49,46,41,50,31,49,46,56,62,55,61,70,52,50,59,55,54,50,67,57,53,60,45,70,58,50,54,19,60,59,40,51,61,36,38,45,31,50,44,50,49,35,46,54,46,42,27,62,38,34,47,44,38,34,37,52,37,36,43,36,48,56,38,44,21,43,47,57,39,40,35,46,45,36,47,44,22,31,49,50,46,30,38,47,41,31,33,26,45,36,29,37,36,60,22,38,35,34,32,40,33,28,52,35,36,42,47,47,62,42,41,47,53,41,55,44,48,63,50,39,48,50,57,48,47,41,35,68,51,45,39,39,33,40,40,56,54,38,45,45,36,44,35,13,30,35,22,30,40,34,20,33,13,22,24,22,8,15,41,30,36,27,26,39,39,38,29,38,34,21,24,13,12,29,13,34,31,27,35,36,20,19,16,22,25,38,22,29,3,11,23,20,23,31,48,84,115,167,212,260,306,358,386,401,421,417,409,391,400,374,328,283,258,210,176,126,128,96,43,54,37,59,51,34,34,12,2,12,-6,11,0,0,2,-11,-11,-25,-10,-17,-22,-6,-10,-14,-32,-13,-26,-12,-28,-12,-8,-19,-26,-27,5,-14,-18,-17,SampleRate:500/Beep_Pulse(86)/TimeStamp(20)/TimeStamp(120)/TimeStamp(220)/TimeStamp(320)/Beep_Pulse(458)/TimeStamp(420)/HeartBeat_Dominant(73)/HeartBeat_Dominant(445)
2004-09-15 08:13:15,-16,-5,-6,-12,5,-10,-23,-14,-10,-18,-12,-17,-14,0,1,-19,-5,-9,-13,-19,-8,-22,-19,4,-7,-3,1,2,8,-3,-9,-9,-7,-12,-7,-1,1,4,2,0,4,-1,-6,6,-2,0,3,8,-17,3,-11,12,-16,-7,11,-12,4,8,9,-1,-5,14,4,9,17,5,3,2,3,12,12,24,10,-10,-1,12,11,5,26,30,30,24,18,15,21,16,22,12,26,22,14,33,18,24,14,9,18,47,36,49,32,34,20,36,40,33,23,25,38,38,52,44,53,39,50,61,64,34,36,34,57,55,36,57,41,34,58,49,39,45,43,64,53,49,46,50,44,38,31,32,56,44,54,52,57,35,27,35,60,36,45,43,45,53,58,37,34,48,46,45,41,30,43,33,28,41,38,39,10,19,33,32,30,30,35,32,37,35,35,33,35,40,27,18,25,25,24,28,20,39,29,35,35,26,33,30,27,20,32,30,30,29,13,35,23,22,14,30,19,33,42,21,29,27,36,33,38,43,41,52,41,36,43,45,46,56,44,55,42,51,44,42,59,50,57,39,56,65,37,46,45,36,46,41,42,40,47,36,39,37,32,25,40,39,30,36,28,27,8,27,27,12,22,23,19,10,30,30,2,34,11,24,8,17,17,11,28,19,10,37,18,10,36,6,27,21,12,31,21,22,16,20,16,21,28,16,24,2,12,11,13,17,-3,9,0,14,33,35,65,100,150,197,243,278,322,353,389,401,418,405,402,399,377,341,315,275,232,193,144,134,100,69,60,62,49,26,42,28,30,14,14,23,18,6,4,0,-12,-28,-16,-17,-14,-28,-4,-11,-28,-22,-12,-23,-11,-13,-25,-11,-20,-20,-23,-16,-22,-18,-17,-4,3,-5,-19,-12,-29,-15,-28,-11,-25,4,-3,4,-26,-8,-5,8,17,-18,-8,-10,-15,-3,1,-4,-8,17,3,5,4,19,-13,12,10,-2,1,-3,14,-2,1,-15,7,-3,4,-12,-1,2,3,-1,2,-7,18,14,-2,-2,12,-4,15,9,8,5,22,18,2,16,11,20,11,16,14,22,29,28,45,27,9,15,9,12,24,4,13,9,24,26,16,20,29,19,21,12,42,23,20,8,27,32,23,35,37,39,36,26,43,36,37,25,54,45,40,55,52,45,31,52,41,48,45,34,33,59,43,63,57,57,39,45,40,53,34,50,SampleRate:500/TimeStamp(20)/TimeStamp(120)/TimeStamp(220)/Beep_Pulse(326)/TimeStamp(320)/TimeStamp(420)/HeartBeat_Dominant(317)
2004-09-15 08:13:16,64,47,48,51,66,60,47,56,43,49,60,44,48,45,44,56,58,55,51,53,43,50,40,56,53,51,59,46,64,44,40,42,58,58,46,40,50,41,52,34,59,47,59,51,40,55,45,44,36,48,35,50,41,44,47,46,46,36,38,34,33,48,57,43,37,37,39,33,15,26,45,39,44,38,38,48,25,31,23,26,26,24,41,50,49,51,34,48,61,47,54,52,43,59,73,47,60,54,55,55,43,44,37,59,66,44,37,73,62,72,48,49,54,41,43,37,47,33,38,43,38,55,38,44,40,26,47,38,41,20,25,41,36,26,3,20,38,29,10,21,21,24,29,34,26,23,34,13,23,30,22,39,28,28,20,24,41,14,42,31,24,28,48,37,15,39,21,28,29,11,34,28,36,-4,25,26,40,56,98,115,162,205,252,283,344,368,401,416,435,422,426,409,402,371,325,289,240,197,165,128,103,95,87,53,79,70,34,54,22,35,27,7,18,5,17,-3,-4,-1,2,1,-1,-14,3,-18,-14,-18,-4,-7,-31,-11,-6,-7,-5,-11,-1,-16,-12,5,-16,-2,-16,11,-3,1,2,-13,-26,4,7,3,13,8,-9,2,6,4,5,1,-11,-14,9,20,7,16,0,14,-8,0,5,27,29,-1,-5,-1,-7,4,8,0,14,6,17,-3,-7,3,5,14,15,5,5,23,22,-6,16,2,20,7,4,18,13,10,19,-2,-3,13,24,9,4,16,11,8,15,32,39,29,17,32,31,19,30,20,36,28,35,22,36,22,21,23,27,27,12,17,45,26,22,35,18,37,26,11,40,31,35,36,47,37,39,46,41,40,32,39,63,48,52,50,65,41,60,46,54,65,56,47,55,45,65,55,64,64,51,48,41,55,49,71,50,43,41,30,59,45,43,37,46,45,47,53,49,45,69,28,44,57,48,52,51,59,46,62,54,49,40,50,37,58,30,55,46,39,60,57,47,42,54,45,49,47,41,47,41,46,42,45,42,32,53,35,27,54,46,55,35,44,54,42,48,28,38,27,50,35,44,48,36,42,42,38,33,52,45,61,51,55,42,39,58,43,59,47,57,43,62,55,62,64,64,64,62,60,51,54,63,61,57,64,64,75,65,49,57,55,63,38,58,52,47,56,37,45,62,54,52,58,54,37,45,41,35,37,SampleRate:500/TimeStamp(20)/Beep_Pulse(196)/TimeStamp(120)/TimeStamp(220)/TimeStamp(320)/TimeStamp(420)/HeartBeat_Dominant(187)
2004-09-15 08:13:17,28,38,49,40,34,59,38,56,30,49,38,37,43,47,42,35,45,24,45,39,45,37,38,37,29,33,43,36,41,31,53,42,33,46,43,44,51,58,44,44,49,37,27,50,48,37,68,68,110,130,192,238,292,336,381,423,451,460,473,462,437,445,408,375,334,290,236,210,173,123,124,110,100,82,68,42,44,39,31,29,30,33,10,16,-6,-5,-1,9,22,5,12,1,1,-6,15,9,12,13,-13,-3,-3,3,17,2,11,3,10,4,6,23,14,12,23,-11,12,27,9,18,15,19,42,18,27,1,7,13,18,20,1,18,35,17,3,26,3,21,36,37,24,30,39,36,41,31,17,25,25,15,17,28,31,25,25,22,31,33,16,29,25,46,62,51,47,32,51,40,44,37,40,31,58,37,42,38,40,52,43,40,45,34,36,42,43,33,39,44,40,45,41,35,41,42,53,52,39,62,35,37,52,60,33,38,44,35,35,53,46,45,57,44,39,44,47,33,42,46,41,57,49,75,50,66,67,63,60,41,66,78,79,58,72,91,57,98,59,77,75,56,68,80,82,75,74,71,67,69,61,68,62,78,77,50,65,64,54,55,69,59,71,53,59,55,59,66,76,69,55,52,52,71,40,62,49,47,42,28,40,49,49,48,48,41,55,58,61,44,56,48,42,39,63,46,35,58,43,48,37,38,52,53,39,43,42,49,43,46,42,46,44,44,46,47,37,42,51,39,52,50,42,45,68,42,59,35,60,39,43,60,65,55,79,64,50,74,43,71,71,59,60,66,77,75,63,57,87,72,77,64,77,71,74,48,67,58,42,41,61,46,37,48,50,55,56,47,28,46,57,63,39,35,44,47,28,51,40,24,36,36,33,41,43,42,34,40,24,24,44,32,53,36,41,39,42,18,32,26,16,21,42,31,40,48,40,33,35,28,27,36,26,33,37,29,25,41,32,40,57,72,107,154,186,231,280,348,405,398,433,454,455,437,446,415,399,357,286,262,217,185,158,130,93,84,73,63,51,37,33,19,41,14,14,5,-10,-11,15,4,20,-3,12,-10,-2,0,-3,-4,5,-3,-32,4,4,3,-15,-6,-4,6,-13,-9,-10,5,-1,17,-15,-5,4,7,4,2,2,3,-5,19,4,6,-11,8,13,-3,1,1,-14,-3,SampleRate:500/Beep_Pulse(66)/TimeStamp(20)/TimeStamp(120)/TimeStamp(220)/TimeStamp(320)/Beep_Pulse(436)/TimeStamp(420)/HeartBeat_Dominant(53)/HeartBeat_Dominant(421)
2004-09-15 08:13:18,13,-5,14,6,1,-1,18,9,-3,1,3,12,17,9,15,3,8,20,16,4,16,16,13,18,4,5,18,15,12,13,25,6,19,16,36,23,27,16,6,20,32,18,23,9,28,15,8,8,17,32,23,22,17,43,4,20,25,26,27,32,16,33,28,33,41,13,28,30,34,12,21,26,30,11,21,31,23,26,37,23,42,39,30,40,44,41,28,32,43,37,48,37,28,45,44,46,42,40,53,53,59,55,61,38,39,39,61,48,48,48,61,44,47,70,53,46,38,29,27,55,56,50,46,51,34,46,41,45,34,46,51,31,57,42,43,37,53,47,50,41,46,41,43,40,54,59,40,29,47,34,43,45,53,30,49,28,33,37,28,46,38,45,51,13,29,35,31,44,35,40,43,35,46,31,27,41,19,36,39,36,52,33,38,47,34,30,10,29,21,21,30,39,50,40,52,46,43,49,37,58,46,42,42,46,49,52,49,53,47,52,59,47,45,52,56,53,60,45,49,47,43,41,43,63,51,55,50,40,38,39,33,45,33,21,28,31,31,49,36,30,37,28,20,29,34,34,24,28,22,22,31,16,44,40,37,27,27,13,34,19,32,48,19,45,32,34,45,23,19,25,43,52,38,25,31,11,35,31,41,37,29,46,16,39,45,53,92,135,158,210,268,330,363,381,412,404,440,414,431,402,375,362,296,267,222,198,152,126,92,82,70,66,52,46,43,33,39,16,12,16,8,6,-7,-1,-7,13,5,-12,-2,4,-21,-3,-10,-8,-11,-4,-5,-17,-20,-8,5,-8,-5,-6,-13,11,8,-17,-7,5,-9,-6,-29,-17,10,6,-3,12,4,-9,0,1,-7,1,-10,-1,8,-16,14,1,-10,22,-2,2,-3,7,9,-7,22,2,1,8,17,-3,14,-3,3,-13,27,18,13,25,11,-5,-4,15,8,5,8,24,14,38,7,33,28,10,4,31,24,28,23,28,19,13,16,19,26,34,39,22,23,29,18,27,31,29,26,31,31,15,42,36,26,25,30,28,44,37,27,46,19,26,37,28,41,14,18,12,39,34,27,31,54,46,23,32,52,42,45,39,39,41,66,43,57,61,55,43,39,40,47,57,55,64,56,37,59,52,60,35,43,47,45,33,46,41,49,31,48,57,49,54,47,48,27,43,31,26,43,55,SampleRate:500/TimeStamp(20)/TimeStamp(120)/Beep_Pulse(304)/TimeStamp(220)/TimeStamp(320)/TimeStamp(420)/HeartBeat_Dominant(289)
2004-09-15 08:13:19,32,40,23,29,37,34,27,18,29,35,42,47,30,39,30,39,19,54,16,52,39,46,32,46,35,40,42,27,36,41,34,47,52,58,37,31,27,44,24,32,30,38,53,37,34,32,20,36,16,13,35,46,27,15,48,38,49,23,43,30,30,39,42,36,50,37,44,61,55,58,59,40,39,61,56,60,51,40,47,52,57,52,62,54,54,42,48,47,50,52,57,47,51,47,42,55,53,56,52,44,59,52,53,54,51,36,30,25,32,25,30,31,36,31,21,30,30,20,28,54,40,30,29,33,33,41,24,40,35,24,38,45,51,23,23,46,13,52,38,37,30,40,44,24,40,18,37,35,26,24,18,24,24,23,69,62,127,171,209,246,289,344,370,413,418,412,407,419,424,382,355,334,286,232,213,168,141,106,86,91,52,67,64,48,51,55,16,34,17,25,5,15,7,-5,-2,0,-4,9,-3,-7,10,0,-13,-1,-6,-3,4,6,-6,-6,-9,-9,10,0,-17,5,2,-3,0,6,-15,-11,7,-2,-1,4,-19,-10,10,4,-11,7,-2,-10,-11,2,-10,7,-6,3,5,-13,21,6,6,-8,11,-4,-3,9,-5,7,23,15,26,29,6,15,6,2,13,3,17,15,-3,13,14,6,33,19,6,16,13,7,20,13,9,25,18,17,20,22,22,29,33,41,6,23,25,16,22,29,22,47,34,42,25,28,37,7,33,36,30,25,26,28,34,41,41,45,45,45,36,20,18,41,38,43,33,46,28,46,50,28,35,40,42,36,48,41,41,55,55,57,52,55,59,50,47,65,65,55,61,52,60,67,57,70,61,78,69,65,62,77,59,63,49,62,49,46,48,62,62,48,57,48,57,65,53,59,61,47,72,63,42,51,51,68,44,47,47,62,43,50,53,53,43,61,56,57,38,53,50,40,48,48,60,58,49,49,60,56,62,39,49,44,30,51,48,34,50,44,50,46,37,38,50,37,40,50,45,57,49,48,37,43,58,44,49,50,48,36,51,45,49,45,48,58,38,56,64,41,57,71,62,72,54,57,54,40,58,46,60,53,82,78,61,74,56,40,55,45,43,50,37,60,61,40,38,49,45,41,43,42,37,41,39,34,38,23,20,24,24,32,28,24,18,23,34,33,24,21,27,17,22,21,34,31,36,24,SampleRate:500/TimeStamp(20)/Beep_Pulse(174)/TimeStamp(120)/TimeStamp(220)/TimeStamp(320)/TimeStamp(420)/HeartBeat_Dominant(165)
2004-09-15 08:13:20,36,21,21,33,39,19,26,38,27,27,28,29,36,17,29,42,24,10,18,3,11,19,11,20,50,61,94,129,173,213,284,322,364,396,405,412,431,423,403,402,369,324,311,261,203,169,147,109,74,85,59,45,40,37,32,32,22,17,31,-10,5,5,1,-16,-12,-3,-21,-29,-15,-12,-3,-12,-13,-22,-12,-12,-26,-3,-7,-17,-7,-14,-11,-9,-3,-14,0,-9,-15,4,6,18,2,-15,-6,-8,-12,11,-6,-1,-27,3,11,-7,5,-6,-10,-13,1,9,2,4,-2,2,-21,-11,-8,1,-3,8,0,-16,6,-9,-7,-3,1,23,-5,2,5,18,35,9,9,7,5,15,18,7,2,8,19,-5,21,11,18,13,6,22,18,24,22,4,30,23,16,18,27,28,23,10,17,30,16,17,11,19,16,21,19,31,7,13,17,29,35,27,9,33,30,30,24,39,29,39,46,17,28,32,39,29,43,33,42,46,45,39,42,47,66,48,49,47,48,51,40,54,50,48,60,44,44,54,60,44,47,54,61,50,67,46,46,57,32,55,44,34,43,44,49,40,39,49,53,70,44,26,55,58,40,52,53,57,47,46,52,22,69,70,45,52,42,11,37,51,47,33,34,46,55,43,46,43,37,38,47,51,46,29,27,37,34,33,49,24,50,50,40,47,43,37,44,26,27,38,40,44,32,34,36,30,36,37,43,39,40,24,29,35,32,40,41,38,47,34,33,35,48,44,55,49,47,51,42,50,30,52,36,42,22,57,57,66,55,40,46,39,53,46,67,40,34,53,43,49,37,40,53,50,47,44,42,30,36,22,39,28,17,31,10,18,22,44,16,22,25,32,34,25,32,32,18,30,26,39,23,19,41,31,33,30,32,24,20,37,26,29,39,20,23,11,25,35,10,36,35,30,10,25,12,26,15,45,70,83,134,187,227,286,342,378,426,439,446,449,436,441,412,374,341,289,253,210,173,141,108,85,86,70,60,57,44,50,32,37,19,7,3,-4,2,0,-4,2,-11,2,-5,7,-4,-8,-10,1,3,11,-4,-17,1,-5,-23,-2,-1,-7,-13,11,-20,11,-4,-24,-6,13,-6,0,-5,-7,13,15,0,4,-12,-3,0,1,-5,-1,1,1,9,5,9,-5,-3,0,4,13,-5,14,15,0,2,2,31,-1,22,20,24,7,22,17,27,-3,SampleRate:500/Beep_Pulse(44)/TimeStamp(20)/TimeStamp(120)/TimeStamp(220)/Beep_Pulse(414)/TimeStamp(320)/TimeStamp(420)/HeartBeat_Dominant(33)/HeartBeat_Dominant(398)
2004-09-15 08:13:21,11,13,27,-6,14,10,23,16,25,24,0,35,6,8,9,2,21,25,3,30,9,9,18,13,26,22,32,10,14,15,25,18,27,18,6,30,13,17,33,27,3,4,6,6,4,14,20,-1,18,14,13,25,35,38,11,33,39,33,26,41,30,34,35,34,30,25,44,54,31,42,57,49,48,46,40,42,46,50,52,30,42,55,54,51,58,49,43,50,44,62,42,45,47,44,38,47,50,31,57,60,42,49,36,45,36,49,45,41,38,41,38,39,44,53,43,40,44,38,42,28,42,48,44,31,27,32,46,30,49,32,42,39,36,51,35,50,47,39,27,35,36,26,25,32,32,23,27,27,29,21,38,32,22,31,28,33,17,35,43,43,37,34,17,47,24,37,36,44,41,39,43,37,32,24,46,49,34,37,62,30,56,35,50,55,37,28,34,38,42,49,64,60,57,68,62,45,27,25,53,27,44,39,21,32,35,41,47,31,17,41,22,17,17,14,15,7,16,15,5,19,4,-4,19,4,14,16,33,-2,10,15,12,18,17,15,23,21,7,6,-2,1,22,9,25,22,12,18,19,17,5,17,11,16,11,18,23,24,11,1,-14,4,8,23,34,47,101,145,177,234,256,326,339,395,402,426,407,412,393,403,363,321,285,236,190,167,146,97,85,54,49,53,47,28,29,9,25,-6,-6,-20,-1,-12,2,-1,-13,-13,-13,-11,-7,-21,-23,0,-21,-8,1,-28,-9,-11,-14,-19,-18,-25,-27,-24,-25,-16,-25,-20,-22,3,-14,-26,-12,-22,-4,-19,-6,-19,-24,-3,-1,-16,-7,-14,-5,-16,0,2,4,1,-17,9,-10,-16,-12,-12,-18,1,0,12,1,10,-15,-7,14,4,17,10,6,25,-3,10,14,-1,3,1,8,8,10,6,16,15,10,17,33,5,17,1,-12,12,11,28,7,25,16,10,1,15,22,31,18,12,20,14,28,21,17,9,4,2,20,-3,7,17,22,6,18,8,27,22,34,17,17,21,28,26,35,20,37,24,41,27,25,29,27,38,39,29,50,43,54,61,47,67,46,38,48,42,25,41,37,46,39,37,54,53,34,39,42,51,53,63,64,53,52,36,48,29,39,40,47,49,46,42,36,51,33,39,40,50,44,41,57,35,44,52,38,52,58,49,42,62,36,57,49,32,30,49,40,42,41,24,SampleRate:500/TimeStamp(20)/TimeStamp(120)/Beep_Pulse(282)/TimeStamp(220)/TimeStamp(320)/TimeStamp(420)/HeartBeat_Dominant(268)
2004-09-15 08:13:22,45,41,49,35,43,52,48,41,50,62,41,52,47,44,44,43,22,42,34,42,32,45,39,25,24,43,23,38,45,35,30,28,38,37,26,30,43,33,42,62,38,36,28,45,55,39,24,25,39,60,55,45,45,43,40,40,58,44,41,33,55,49,43,63,41,53,58,31,54,70,40,40,36,36,23,33,22,55,34,58,44,31,37,33,45,21,33,13,27,19,25,26,4,26,13,14,14,33,6,16,13,23,17,13,27,20,12,27,13,38,32,34,24,11,12,20,23,12,32,23,21,6,23,39,21,16,10,27,26,9,13,10,7,2,18,26,41,52,106,135,204,256,295,319,365,391,404,401,409,412,405,362,354,309,274,215,191,153,120,92,81,59,62,50,46,25,41,20,18,20,-5,5,8,-5,-6,6,-4,-25,6,-7,9,-4,-6,-7,-4,-15,-22,-26,3,4,-20,-8,-25,-23,-6,10,-22,-10,-9,4,-25,-11,-10,5,-21,-15,3,-9,-7,-5,-4,-11,-9,9,1,-10,13,-4,3,-13,2,4,9,2,13,-9,-3,-10,9,10,2,9,15,36,-4,19,15,-6,5,9,0,1,4,-5,-1,8,1,12,28,17,21,26,32,21,10,16,26,5,30,18,19,31,7,29,14,42,20,30,19,33,23,28,32,19,25,18,22,3,10,18,25,11,12,22,20,41,7,7,23,36,6,24,32,18,34,39,21,39,19,35,31,24,33,29,19,37,45,35,22,36,48,57,54,39,43,30,34,42,48,46,41,36,53,29,33,48,50,58,68,44,63,49,57,44,48,67,64,42,47,52,53,50,35,40,42,35,50,51,38,33,46,57,36,48,46,55,62,43,39,34,26,42,38,40,53,56,52,46,54,74,55,37,42,46,41,23,49,48,33,55,47,34,33,38,38,23,30,43,45,59,44,42,31,46,31,43,37,47,57,52,21,46,34,40,35,33,38,31,38,47,39,28,31,38,37,31,27,27,38,45,30,24,39,16,43,23,17,26,32,42,56,27,49,23,33,27,41,47,36,61,49,51,59,61,41,49,40,57,52,54,41,28,25,51,47,52,49,53,67,71,65,61,50,58,25,47,42,40,49,49,24,49,51,31,47,48,44,25,38,52,48,19,24,24,25,21,27,32,42,29,24,15,25,23,24,28,22,19,18,24,SampleRate:500/TimeStamp(20)/Beep_Pulse(156)/TimeStamp(120)/TimeStamp(220)/TimeStamp(320)/TimeStamp(420)/HeartBeat_Dominant(146)
2004-09-15 08:13:23,44,31,31,18,26,24,20,32,30,32,20,30,16,37,43,39,28,40,26,27,16,15,25,28,17,43,80,93,140,182,225,269,315,359,404,413,399,440,437,422,399,372,338,303,265,210,190,147,136,108,83,62,66,23,36,44,27,41,21,22,17,19,8,-6,-4,2,5,-5,-5,-9,-7,-6,-10,-19,9,-1,-12,-28,4,-9,4,-15,2,-19,-7,-7,-14,-14,-2,2,-10,17,-6,-19,-14,-16,-23,-13,-15,-12,-3,-6,13,-10,-6,-5,4,7,1,9,0,8,6,6,6,-1,12,11,10,13,3,12,10,13,19,8,5,1,15,23,21,27,7,7,5,24,0,25,11,35,33,18,10,24,14,25,3,26,33,26,12,29,17,25,10,39,22,24,37,12,29,12,36,18,20,6,15,23,23,35,30,36,33,13,25,36,14,20,19,45,25,27,22,4,18,28,33,33,28,22,34,27,25,48,24,34,38,42,53,61,33,54,24,52,46,65,55,38,67,55,54,43,48,50,50,47,43,50,56,63,47,66,72,45,46,48,46,53,47,49,54,42,62,50,35,63,65,47,39,36,42,50,36,54,42,46,57,39,55,49,48,52,43,40,42,34,48,48,52,29,59,60,53,45,42,42,47,48,53,53,47,45,63,54,43,52,48,41,42,51,42,36,49,46,39,49,63,81,87,89,87,109,127,129,146,153,162,179,182,189,196,197,214,208,221,220,234,241,255,270,278,283,279,312,335,323,351,376,410,416,417,429,432,429,435,405,388,350,327,286,266,216,191,159,119,99,83,61,50,68,90,95,108,120,116,109,114,118,117,73,64,65,47,24,2,-17,-22,-23,-47,-33,-13,-20,-14,-9,-31,-41,-32,-36,-43,-45,-40,-48,-43,-48,-56,-47,-45,-49,-37,-43,-64,-58,-64,-44,-63,-46,-74,-27,-50,-47,-61,-40,-53,-52,-56,-54,-47,-58,-55,-55,-59,-70,-58,-53,-44,-38,-56,-50,-65,-59,-49,-42,-51,-45,-41,-73,-72,-58,-56,-58,-58,-76,-62,-51,-65,-55,-61,-71,-56,-63,-67,-75,-71,-75,-67,-56,-75,-75,-73,-61,-71,-72,-77,-62,-62,-69,-62,-63,-69,-55,-63,-65,-83,-62,-62,-52,-70,-50,-52,-63,-66,-55,-68,-46,-78,-38,-62,-51,-29,-26,-42,-51,-43,-24,-20,-16,-25,-31,-26,-43,-24,-9,-19,1,-19,-15,-7,-1,6,-2,17,-4,7,24,-3,22,22,25,34,15,SampleRate:500/Beep_Pulse(46)/TimeStamp(20)/TimeStamp(120)/TimeStamp(220)/Beep_Pulse(344)/TimeStamp(320)/TimeStamp(420)/HeartBeat_Dominant(35)/HeartBeat_Abnormal(319)
2004-09-15 08:13:24,30,48,43,31,62,32,55,41,50,50,45,51,57,45,64,67,54,57,72,69,58,67,45,56,72,57,58,65,74,61,66,66,74,67,73,63,59,55,72,69,52,68,71,59,55,61,72,75,52,67,65,63,53,50,60,56,45,67,52,61,48,55,63,58,70,61,55,64,53,44,53,58,49,48,51,39,47,40,72,50,67,51,61,56,61,60,25,47,58,57,48,52,38,35,61,57,58,52,67,50,51,56,57,59,61,53,37,56,48,56,57,53,63,46,47,59,53,53,34,63,53,40,44,36,57,57,70,66,57,52,59,47,41,41,58,60,51,59,55,42,70,51,67,66,47,44,62,47,65,47,46,51,50,53,55,56,48,43,56,60,78,56,48,80,45,45,58,40,61,52,55,58,56,47,54,50,64,50,45,49,62,53,31,33,44,49,48,52,66,71,57,61,53,65,61,54,40,71,56,69,55,56,44,57,57,46,45,45,62,60,60,52,55,66,65,60,72,54,60,67,73,88,74,88,81,83,72,75,80,84,94,78,75,88,78,81,83,97,103,94,71,88,72,85,75,71,46,64,74,72,71,86,79,69,64,63,69,59,64,55,23,38,55,57,45,61,53,39,37,39,40,37,43,44,30,30,39,31,42,38,45,55,40,28,36,37,36,28,43,36,38,62,41,61,27,55,54,30,41,47,42,40,33,37,37,28,16,11,42,15,45,56,73,109,157,211,247,308,354,385,411,454,464,467,456,440,426,387,353,321,268,216,185,164,133,116,83,62,77,48,53,53,49,40,11,5,6,1,6,25,10,3,-9,-23,-9,-15,-2,3,11,-3,-13,-8,-23,-9,-3,3,-16,-6,-7,-8,-20,-4,-24,1,-11,-15,-10,3,-9,-6,-26,-11,5,5,0,-5,-1,0,3,-3,0,0,-18,-2,14,7,1,12,5,16,5,19,19,-8,5,6,3,-8,19,27,18,14,6,6,13,10,20,18,17,28,39,15,24,14,9,14,17,27,27,22,11,21,22,22,37,28,24,21,8,19,35,11,44,50,30,29,26,32,42,52,26,26,32,47,34,51,34,41,33,39,46,42,49,44,51,16,29,48,31,54,35,54,55,55,51,48,50,58,59,53,50,58,70,69,69,60,73,57,63,77,80,76,67,84,76,83,70,86,88,85,SampleRate:500/TimeStamp(20)/TimeStamp(120)/TimeStamp(220)/Beep_Pulse(332)/TimeStamp(320)/TimeStamp(420)/HeartBeat_Dominant(318)
2004-09-15 08:13:25,78,86,85,87,89,80,83,85,80,75,74,75,70,79,66,64,53,56,67,48,65,57,56,71,52,43,65,42,45,44,51,26,32,39,41,49,45,27,66,41,37,50,48,38,50,37,43,40,45,32,30,34,53,30,43,38,26,52,37,36,35,40,44,52,39,30,41,35,41,40,26,41,38,36,21,33,47,26,21,55,32,34,35,23,36,31,54,11,13,42,39,24,32,34,31,50,37,33,37,46,54,33,29,43,26,61,51,53,58,54,51,72,70,67,63,71,54,59,72,70,58,69,45,45,52,59,54,41,51,58,61,66,57,48,51,42,54,33,58,51,36,53,43,33,29,23,16,13,21,21,18,15,17,4,14,33,12,11,30,33,27,28,22,19,41,40,24,23,27,31,14,19,21,27,15,17,29,13,3,25,22,12,14,20,5,24,16,26,23,32,25,26,35,15,19,7,4,-12,8,27,49,68,113,165,216,271,310,346,389,398,412,435,415,410,387,373,342,293,264,212,188,150,121,77,68,68,53,33,45,36,27,30,14,11,16,1,16,-19,-13,-2,-6,3,-3,-10,7,-8,-12,4,-9,-16,8,3,-21,-14,-16,-4,-14,-5,5,3,-9,-11,-9,-3,-13,-5,-8,7,-7,3,-3,6,1,9,0,14,-12,16,19,6,5,8,-9,1,-5,1,-2,18,24,0,5,4,-1,14,1,10,15,11,-6,6,5,6,16,5,18,9,18,21,15,25,7,6,19,24,6,25,25,21,18,2,9,34,12,18,14,16,25,18,30,15,22,15,14,8,20,28,4,11,32,36,19,14,31,33,35,20,26,37,38,26,37,21,29,39,25,36,29,42,29,42,45,43,41,36,31,40,27,53,48,38,50,29,36,46,46,46,44,39,34,53,44,50,48,40,48,52,49,44,48,43,33,50,42,57,47,35,47,47,56,42,59,45,52,61,45,37,49,38,38,37,27,50,37,44,53,38,39,52,46,68,41,43,39,50,46,55,26,32,25,30,33,45,51,31,47,53,36,32,37,18,36,42,27,29,50,42,46,53,50,43,31,23,46,37,40,38,47,48,40,49,52,56,38,31,45,38,31,55,43,42,33,40,29,24,29,50,28,47,63,53,41,46,65,47,48,50,54,60,54,74,42,60,57,54,46,45,57,68,58,62,SampleRate:500/TimeStamp(20)/TimeStamp(120)/Beep_Pulse(220)/TimeStamp(220)/TimeStamp(320)/TimeStamp(420)/HeartBeat_Dominant(206)
2004-09-15 08:13:26,69,51,53,57,45,43,54,67,58,48,60,60,61,59,40,43,31,36,36,26,35,23,14,43,11,12,38,11,14,14,16,15,26,12,16,35,12,14,24,25,18,23,9,6,35,10,5,27,-6,28,29,13,26,25,16,6,5,25,13,2,16,12,8,7,7,39,30,18,29,17,18,10,14,-8,9,1,21,-1,13,33,37,93,128,162,215,267,310,347,376,392,406,418,434,413,393,389,336,296,261,225,177,148,119,92,82,50,48,35,47,38,31,28,3,3,-2,15,-7,-4,-9,-10,-16,-32,-2,-24,-8,-22,-21,-20,-18,4,-23,-7,-26,-20,-10,-20,-10,-13,-9,-9,-18,-13,-12,-13,-14,-19,-14,-19,-20,-2,-4,-9,-10,-5,-16,-12,-21,-6,-12,-5,-24,7,-24,19,-11,0,-2,-24,27,12,3,4,-19,-3,-22,-2,-8,-4,6,-15,-6,20,1,-2,-17,3,20,-3,18,9,14,18,26,7,17,23,5,-6,16,20,23,22,5,26,3,6,26,13,18,7,29,8,7,22,-2,23,8,18,11,10,15,21,3,25,24,38,32,33,48,16,24,32,22,24,26,31,37,33,39,23,36,32,32,27,37,28,23,40,50,48,43,38,42,51,44,44,35,41,50,38,59,39,43,61,36,55,32,45,44,35,71,42,54,40,34,53,41,55,43,43,46,43,46,39,35,43,35,57,44,57,49,46,46,57,38,47,57,63,52,41,29,37,51,51,52,55,60,43,49,46,45,53,23,34,42,40,53,37,40,42,33,32,35,33,30,33,36,39,42,54,36,37,40,33,30,46,22,40,30,43,29,42,26,29,31,30,25,18,43,28,28,45,48,44,21,50,52,34,50,37,55,45,48,53,47,58,59,51,58,44,49,63,60,61,59,57,61,66,62,54,40,63,66,48,59,45,47,48,53,64,60,45,56,36,48,52,33,27,37,50,34,43,34,44,21,25,15,34,2,9,14,22,6,16,3,27,27,25,14,5,26,12,18,27,10,15,22,8,18,25,27,16,15,26,11,16,15,19,12,28,18,13,3,23,16,9,-3,26,19,35,11,9,11,9,-8,-5,25,16,49,44,87,127,164,226,263,320,367,394,424,426,433,428,438,406,402,361,313,284,221,185,163,129,85,79,61,62,48,39,44,35,14,20,16,9,-1,11,2,-6,14,-5,SampleRate:500/Beep_Pulse(100)/TimeStamp(20)/TimeStamp(120)/TimeStamp(220)/TimeStamp(320)/Beep_Pulse(478)/TimeStamp(420)/HeartBeat_Dominant(91)/HeartBeat_Dominant(466)
2004-09-15 08:13:27,6,6,-7,-2,-5,-9,-7,-4,-5,-2,3,-2,-2,-20,3,-6,-13,11,-17,-1,-17,6,-9,-4,-11,1,-3,-13,7,-1,-6,1,-11,4,-1,-1,4,3,2,-6,7,1,19,-6,1,4,-2,-4,1,-8,-7,6,-7,4,23,0,14,-10,-7,14,1,6,7,26,7,-3,7,3,10,4,21,24,9,6,7,16,16,7,14,8,18,11,5,6,19,13,9,23,32,12,24,23,16,5,10,22,7,32,34,22,32,21,29,16,7,22,39,25,48,36,41,24,34,19,18,43,41,41,45,34,47,31,40,34,48,52,49,48,39,43,32,54,46,57,49,51,58,38,39,60,46,45,56,66,45,66,57,57,58,59,69,64,63,70,58,64,42,48,39,27,41,48,47,34,51,48,53,47,53,50,52,47,51,47,61,40,53,48,39,39,33,35,44,39,39,31,56,50,65,49,38,24,52,42,31,33,48,33,40,39,51,44,37,25,44,49,31,49,42,47,45,47,44,41,57,36,35,39,40,45,53,42,42,48,36,34,35,24,32,36,23,32,36,29,47,35,34,39,57,30,41,55,38,54,50,46,49,58,65,50,37,55,28,38,59,79,66,61,73,77,65,69,57,38,62,39,52,69,53,67,75,46,46,37,47,39,32,44,48,27,35,32,43,32,20,32,36,17,27,33,22,51,26,17,26,21,11,26,31,14,28,41,24,28,22,10,23,13,22,17,13,14,10,13,7,3,20,12,10,23,8,12,11,21,12,4,16,23,23,17,41,30,20,9,5,4,21,51,35,66,113,171,229,277,333,365,410,445,456,439,438,424,410,396,342,305,261,227,188,160,123,91,65,57,73,36,48,19,29,10,3,6,-2,3,-17,-27,-3,-12,-19,9,-7,-32,-28,-24,-27,-48,-25,-18,-17,-27,-14,-22,-28,-9,-21,-16,-24,-32,-29,-19,-24,-9,-37,-39,-9,-29,-19,-28,-10,-15,-24,-29,-16,-22,-24,-13,-16,-14,2,-1,-16,-19,-1,-22,-4,-2,-24,-13,-15,-28,-9,-14,-23,-12,-2,-6,12,5,2,1,3,-4,3,6,9,9,-1,5,-1,0,-22,2,5,-8,2,11,-14,11,2,-5,15,-2,12,7,4,2,3,4,13,11,19,19,2,-8,7,7,5,10,7,15,15,6,-3,12,6,5,-5,27,20,24,16,9,12,10,7,13,13,29,17,30,SampleRate:500/TimeStamp(20)/TimeStamp(120)/TimeStamp(220)/Beep_Pulse(358)/TimeStamp(320)/TimeStamp(420)/HeartBeat_Dominant(343)
2004-09-15 08:13:28,10,30,16,17,31,24,24,26,18,39,41,26,39,34,40,48,55,49,30,39,45,37,48,51,43,28,38,40,47,48,63,40,41,55,44,69,39,49,40,34,43,42,50,42,44,26,58,43,35,45,37,36,39,50,35,53,52,51,49,46,53,31,41,41,34,47,25,40,56,57,37,67,37,28,44,51,31,38,45,35,39,38,51,36,25,34,32,26,32,27,29,32,41,38,26,44,31,28,27,36,38,31,19,27,29,41,42,38,43,45,36,17,27,23,35,41,49,48,31,56,35,38,50,30,52,55,37,43,63,31,38,36,48,47,56,64,62,48,58,39,51,41,59,49,60,53,75,59,48,36,42,44,37,38,24,31,9,39,37,42,-3,19,5,11,9,-10,6,-2,-3,11,-8,12,6,-2,23,3,-7,-8,5,4,4,-8,3,-3,9,15,4,5,13,3,19,-4,1,10,-1,7,20,10,8,14,11,-5,12,19,11,23,4,16,24,-4,-5,-11,7,-3,8,11,31,69,105,142,186,251,310,336,375,366,418,402,403,398,390,358,318,279,246,182,161,128,92,77,59,51,18,30,39,21,20,5,13,-5,12,-39,-9,-30,-19,-29,-40,-22,-47,-26,-35,-31,-46,-17,-33,-24,-24,-34,-37,-30,-20,-24,-22,-22,-35,-26,-32,-16,-42,-20,-16,-27,-14,-16,-19,-10,-21,-34,-9,-10,-8,-10,-24,-18,-13,-11,-4,-2,-19,-20,-17,-13,-17,-26,-14,-18,-6,-15,-4,0,-17,-3,23,1,16,-15,3,-7,-7,-6,9,-1,0,8,-3,-9,-6,4,-5,-13,2,16,13,4,15,-8,10,9,29,12,4,17,26,17,23,2,15,21,19,10,21,8,8,13,-1,26,7,16,17,13,18,15,-1,12,29,14,29,20,3,15,21,21,19,10,26,16,28,34,30,41,28,32,52,38,42,42,43,43,51,35,46,35,38,36,32,40,62,47,53,39,59,56,40,51,60,54,42,49,43,31,55,54,49,47,48,53,61,62,46,36,44,47,37,41,43,46,43,44,41,36,29,49,36,47,29,40,40,30,38,29,44,17,19,35,37,40,22,34,40,34,46,53,45,21,31,43,23,24,32,32,33,34,19,23,28,23,25,15,13,38,29,27,17,33,20,28,9,34,16,28,26,28,37,34,37,34,29,28,41,47,39,64,51,46,56,62,57,52,56,62,SampleRate:500/TimeStamp(20)/TimeStamp(120)/Beep_Pulse(236)/TimeStamp(220)/TimeStamp(320)/TimeStamp(420)/HeartBeat_Dominant(221)
2004-09-15 08:13:29,53,62,51,47,50,44,62,47,53,63,76,79,70,54,62,57,56,58,64,65,59,52,74,68,54,76,72,55,56,48,53,41,39,34,29,27,25,46,33,23,33,23,12,22,8,17,19,12,20,13,11,17,9,7,35,7,32,6,24,2,14,-3,24,10,14,-1,10,21,14,8,17,22,10,23,3,17,20,20,17,23,17,19,19,23,-1,8,-5,1,9,16,20,60,73,89,144,189,237,278,337,363,385,403,404,409,405,384,378,338,320,273,238,194,147,119,89,74,76,66,50,41,37,30,10,26,3,-8,-15,-18,-25,-3,-14,-10,-4,-8,-22,-19,-31,-16,-14,-31,-20,-15,-8,-13,-19,-33,-19,-48,-26,-29,-23,-20,-8,-14,-16,-24,-12,-6,-4,-19,1,-2,-8,1,5,-19,-7,-4,-17,-13,4,2,0,-4,-22,4,-4,-12,-6,10,7,12,-12,-6,2,0,-2,6,27,-1,4,18,-2,-13,-6,-9,-15,-11,1,6,11,28,13,8,-12,3,2,24,20,12,-5,17,2,6,13,14,22,9,8,14,15,5,20,12,21,13,25,27,15,35,26,19,22,12,10,26,20,30,37,21,37,19,30,34,16,33,7,38,13,16,28,31,42,22,29,24,21,22,53,15,13,46,24,26,31,33,42,33,55,27,50,47,43,50,43,40,54,52,50,55,46,62,43,58,43,43,48,46,40,46,53,42,50,32,49,37,65,39,42,36,42,31,37,38,67,47,40,40,35,50,31,39,50,22,34,56,45,47,49,43,46,45,55,26,40,58,36,39,30,61,28,33,37,31,49,32,28,40,36,47,46,43,36,28,31,40,39,44,46,40,51,40,39,51,39,28,50,40,41,43,48,52,33,46,50,37,54,67,55,58,47,53,47,43,55,64,71,67,74,57,73,87,80,72,69,70,83,89,77,68,49,70,60,69,77,58,70,60,77,60,55,60,56,53,73,53,60,59,37,53,50,33,43,32,31,48,38,35,36,30,27,33,23,17,15,30,12,34,14,9,19,23,26,28,17,13,38,23,28,45,31,31,29,23,32,26,27,18,17,19,20,24,22,34,10,28,29,33,25,23,19,15,6,24,19,24,45,62,89,120,170,214,231,308,344,399,394,444,425,409,412,405,392,353,311,270,219,182,158,137,86,89,69,57,42,39,24,48,26,25,SampleRate:500/Beep_Pulse(110)/TimeStamp(20)/TimeStamp(120)/TimeStamp(220)/TimeStamp(320)/Beep_Pulse(486)/TimeStamp(420)/HeartBeat_Dominant(103)/HeartBeat_Dominant(473)
2004-09-15 08:13:30,17,4,11,-18,5,-15,-17,-2,-8,-13,-7,-2,-12,-12,-25,-14,-19,-11,-25,-4,-19,-13,-24,-24,-18,-38,-20,-13,-17,-10,-6,-8,-15,-6,-16,-20,-11,3,-2,-6,-17,2,-5,-2,0,2,-6,9,3,1,16,6,-8,-8,-5,8,2,20,7,4,10,12,10,-3,-1,11,-1,4,11,8,27,2,6,16,14,11,9,25,29,18,12,27,22,13,6,13,13,16,23,14,15,30,17,20,4,22,21,39,24,22,22,25,26,28,22,23,7,38,37,33,29,38,41,31,36,16,28,53,41,38,50,38,22,16,35,24,52,37,24,29,46,53,56,46,32,51,52,40,62,56,47,62,45,47,41,42,45,44,64,74,55,81,54,82,69,61,75,64,80,59,70,63,64,63,77,50,60,63,71,63,67,46,54,55,54,47,62,74,48,67,64,70,50,55,52,61,45,53,71,66,60,44,66,62,59,65,51,51,52,61,47,61,68,51,57,48,42,73,40,46,48,67,54,60,44,58,56,53,48,56,59,49,51,51,33,54,33,63,44,62,34,47,34,40,55,53,48,53,62,50,59,55,53,74,58,57,59,74,73,93,80,64,63,62,69,77,77,86,82,88,85,92,88,84,69,57,76,75,65,68,73,75,63,81,77,87,72,86,80,76,48,68,48,51,51,47,41,62,42,28,32,47,38,38,29,12,20,29,38,35,24,31,28,32,43,23,33,34,30,29,23,34,24,15,38,43,39,38,26,29,41,51,39,28,37,46,36,31,36,22,44,45,44,63,38,26,34,16,28,30,20,40,48,61,100,138,196,247,300,361,419,424,463,469,473,451,464,423,406,363,314,263,227,190,155,138,117,99,75,58,50,60,46,44,48,39,19,25,31,26,28,4,-1,5,1,-10,-1,1,-4,10,0,-2,-13,10,2,6,8,4,5,-20,10,-13,-3,-27,12,4,-3,-2,9,-14,5,4,-21,0,-4,-1,-8,-2,-3,8,-4,8,-6,9,12,11,-7,14,2,20,5,28,11,-2,-6,-8,0,3,15,6,24,14,2,7,18,19,18,15,22,-2,12,27,28,25,15,24,10,13,35,22,6,25,33,27,8,32,39,21,15,27,40,41,21,21,25,25,42,35,31,21,33,28,25,24,31,24,38,32,42,38,36,45,39,26,33,36,48,46,23,27,SampleRate:500/TimeStamp(20)/TimeStamp(120)/TimeStamp(220)/Beep_Pulse(362)/TimeStamp(320)/TimeStamp(420)/HeartBeat_Dominant(349)
2004-09-15 08:13:31,35,53,29,36,21,63,29,49,32,49,25,24,37,54,65,45,53,57,55,57,46,61,57,61,66,69,47,64,69,58,58,73,60,71,71,62,66,72,49,56,51,60,44,48,60,71,54,60,54,50,49,51,80,45,57,55,53,55,43,41,54,42,38,35,47,51,51,36,58,43,48,53,50,34,42,54,42,51,52,55,35,39,40,45,43,44,65,62,54,32,43,46,41,41,44,43,50,41,51,45,37,50,57,38,44,39,43,42,48,45,38,40,35,37,54,50,48,61,56,58,56,49,61,46,43,59,50,52,62,65,59,83,66,55,59,56,63,62,76,95,72,56,49,56,73,52,52,63,66,66,58,60,51,43,55,56,54,35,44,42,32,39,29,27,44,20,46,31,31,27,29,15,12,30,9,27,18,14,13,12,13,20,24,10,19,20,9,26,20,23,34,25,11,15,17,25,10,20,32,30,35,22,25,20,24,23,20,21,9,7,16,15,20,9,9,0,8,38,41,71,104,166,208,255,300,358,389,413,430,426,425,428,415,374,348,304,270,232,174,147,136,87,71,63,41,33,56,36,45,28,29,14,4,16,15,-7,10,-16,10,5,10,0,-10,-15,12,-13,-5,-16,-18,-18,-15,-14,-19,-17,-6,-31,-24,-36,-21,-15,-13,-12,-19,-9,-17,-14,3,-3,-6,-7,4,3,-14,-10,-5,-12,-1,-9,-4,0,-3,-3,14,13,-8,-11,-17,1,13,-7,4,18,14,0,13,3,15,17,18,20,-3,16,9,-1,-9,9,7,3,10,15,25,21,21,28,2,32,6,19,27,14,18,-4,21,15,23,18,25,11,28,12,26,19,24,32,28,13,16,31,25,23,24,18,33,19,17,22,20,18,37,29,24,32,22,31,37,33,20,39,34,28,32,49,34,32,48,36,59,59,42,50,43,30,34,49,62,54,59,36,40,65,48,43,45,62,57,56,56,57,52,55,42,51,55,59,64,50,59,43,73,48,52,53,52,37,45,53,42,57,55,49,46,57,57,50,58,40,33,47,49,54,34,44,58,54,45,58,54,51,45,55,43,43,48,32,62,43,63,54,36,47,30,55,58,55,35,57,47,44,53,52,46,62,36,54,57,60,52,40,64,54,49,45,45,25,33,38,45,39,49,47,51,39,44,47,53,57,60,69,59,57,SampleRate:500/TimeStamp(20)/TimeStamp(120)/Beep_Pulse(238)/TimeStamp(220)/TimeStamp(320)/TimeStamp(420)/HeartBeat_Dominant(225)
2004-09-15 08:13:32,59,84,72,65,63,77,72,66,70,70,85,67,76,83,64,72,82,69,63,72,74,57,62,56,53,63,60,55,62,57,61,62,54,48,41,50,50,30,50,33,45,39,37,30,31,26,20,24,25,28,28,29,28,20,30,36,29,17,20,17,27,33,18,15,20,22,24,38,27,28,23,26,23,23,13,28,20,15,36,25,27,30,16,29,51,16,25,30,19,-7,18,19,24,75,58,113,140,193,240,300,332,375,402,394,416,421,415,417,391,349,318,282,242,202,165,133,106,96,71,73,40,44,21,35,29,21,24,11,4,-16,6,0,-5,-10,0,-12,-1,-9,-5,-11,-1,1,-23,-4,-23,-5,3,-27,-9,-11,-12,-15,-14,-24,-2,-9,1,-14,-10,-1,4,-18,-22,-1,-14,11,-6,-2,6,17,5,-5,14,0,24,1,11,10,9,6,19,-2,6,22,12,0,3,-1,-7,13,3,10,1,10,13,4,8,16,17,13,18,31,25,13,10,-1,19,18,19,14,24,9,22,9,11,28,-4,17,23,27,22,22,25,30,23,28,16,44,39,53,29,41,26,37,32,23,28,34,39,47,26,47,31,32,22,30,32,24,30,28,22,33,34,42,43,38,40,39,32,46,39,51,32,30,32,44,52,44,39,52,44,54,49,55,43,35,62,47,56,59,52,45,57,60,53,55,36,58,46,39,44,39,63,64,33,46,46,53,44,35,56,47,26,65,44,56,61,34,27,43,41,49,34,39,60,36,49,33,37,55,39,36,24,46,39,52,36,43,33,21,35,19,47,30,33,63,32,36,47,27,38,34,48,29,29,42,42,44,21,43,43,31,26,32,49,54,30,28,24,54,30,24,34,30,29,28,50,31,39,41,54,46,49,42,62,53,41,52,38,44,35,44,59,43,31,61,75,55,66,69,57,67,62,43,47,43,38,48,42,55,34,52,37,36,55,42,57,35,45,42,28,34,34,14,25,17,10,24,7,25,22,11,18,7,20,28,22,43,11,27,16,16,20,22,8,13,25,25,17,0,9,22,15,35,35,36,17,12,19,23,37,27,25,6,3,29,16,18,29,25,31,10,12,12,-7,1,6,27,40,53,83,117,180,210,243,303,353,375,404,422,415,426,407,391,374,328,309,263,225,184,153,120,98,76,49,57,52,37,44,40,SampleRate:500/Beep_Pulse(114)/TimeStamp(20)/TimeStamp(120)/TimeStamp(220)/TimeStamp(320)/Beep_Pulse(488)/TimeStamp(420)/HeartBeat_Dominant(100)/HeartBeat_Dominant(472)
2004-09-15 08:13:33,-1,7,23,-6,-3,-4,-15,12,-14,-7,-15,-12,-17,-9,2,-10,-23,-19,-20,-18,-14,-7,-7,1,-4,-2,-4,-18,-16,-20,-15,-4,-34,-18,-15,-7,14,-16,-7,-9,-15,6,-5,-17,-14,-11,2,-2,7,-11,1,-11,-12,2,-7,2,4,-11,15,-6,-13,0,-20,-2,-14,-5,-5,-3,-20,2,-8,3,6,6,-10,-16,4,-1,11,14,11,19,4,16,0,15,5,9,4,5,-7,8,-4,18,15,3,26,15,14,16,15,21,2,27,21,20,29,29,30,18,24,12,26,18,16,23,39,21,25,27,20,43,21,12,38,21,33,32,29,33,38,24,28,25,37,55,26,45,35,52,59,36,30,53,40,51,64,32,66,47,50,64,43,44,51,50,56,56,40,62,60,48,56,48,48,43,58,54,56,49,51,52,38,40,68,53,34,41,67,28,49,48,35,46,52,43,53,53,41,65,41,52,41,45,37,33,70,50,61,55,59,36,40,12,28,48,53,38,41,32,41,45,23,47,48,47,34,31,35,37,27,26,32,45,28,27,37,50,26,28,27,32,33,33,62,48,43,52,37,51,48,45,29,45,38,53,44,69,52,61,43,43,61,58,42,46,47,57,62,75,77,88,79,71,78,74,77,51,51,49,59,71,64,60,63,55,50,50,73,72,58,49,45,48,58,35,36,37,55,47,30,31,10,47,27,38,22,22,29,32,27,18,12,14,23,23,31,38,37,37,28,43,14,30,41,27,38,27,24,29,28,21,42,23,24,14,24,31,27,41,24,20,32,35,36,21,20,23,19,8,14,34,43,54,33,77,99,156,199,246,297,348,390,423,434,429,452,439,414,410,369,349,290,246,204,179,128,113,87,70,60,55,52,31,34,17,41,17,11,3,-1,14,-3,0,-5,-6,16,10,10,0,-12,9,-7,1,-8,-18,-3,8,7,-2,-1,-7,-17,-8,-8,-7,6,6,22,-3,-21,-8,-11,0,-3,9,-3,3,-2,0,-9,-6,-7,10,-10,10,-3,15,7,1,4,23,17,0,3,12,17,21,7,5,8,3,27,7,8,1,6,7,23,29,27,21,17,26,35,22,12,42,21,4,9,18,28,21,18,8,14,20,39,33,9,5,24,29,11,20,31,22,11,10,35,26,13,23,29,42,41,24,19,29,41,41,26,24,33,40,42,39,36,21,SampleRate:500/TimeStamp(20)/TimeStamp(120)/TimeStamp(220)/Beep_Pulse(364)/TimeStamp(320)/TimeStamp(420)/HeartBeat_Dominant(350)
2004-09-15 08:13:34,15,23,40,30,34,49,45,52,55,53,25,33,34,43,49,58,52,58,46,65,58,47,60,56,73,64,60,89,66,64,84,72,58,77,57,67,51,80,58,55,56,54,62,60,59,73,65,54,53,53,42,49,71,62,66,58,53,54,53,58,59,54,53,46,63,52,60,56,50,48,42,40,48,41,46,47,49,43,53,52,32,49,41,31,46,44,38,40,51,48,42,44,49,33,51,29,52,43,53,42,41,21,44,52,43,21,43,57,46,37,47,58,33,36,47,56,45,43,29,49,64,45,52,44,54,54,49,55,43,37,46,65,43,52,43,58,51,73,52,62,56,68,60,50,61,52,56,51,60,71,69,66,60,73,35,73,61,58,56,52,47,43,48,40,57,25,50,47,40,37,34,28,43,38,37,39,26,24,23,17,18,46,37,26,31,26,39,34,29,47,31,31,22,34,6,33,20,9,25,28,25,41,42,46,44,31,39,42,39,36,23,29,32,57,26,32,37,32,15,6,23,36,46,64,88,164,195,258,295,338,384,409,452,454,455,439,426,396,378,351,293,271,221,151,131,121,89,87,71,69,62,57,36,18,36,18,14,17,8,3,10,7,5,-6,10,14,-7,-7,9,7,7,-10,-21,-19,-4,-19,8,-15,-25,0,-5,2,-1,3,-22,15,3,5,-5,-2,-6,-4,2,0,0,11,-2,-10,17,-8,5,-3,9,7,15,20,-3,20,7,14,1,15,6,29,11,8,0,16,13,16,-2,14,6,-10,21,16,9,9,7,16,12,35,22,5,8,24,11,34,18,3,4,2,37,13,20,27,7,4,19,33,15,15,20,15,21,19,24,19,30,-7,23,23,27,1,25,18,19,29,14,21,25,12,28,20,28,31,1,12,23,38,27,28,30,20,17,20,25,60,38,25,42,21,39,57,50,45,48,48,33,45,34,44,68,49,68,61,54,70,66,73,57,67,49,60,45,57,51,60,36,36,35,54,47,51,52,45,53,38,41,41,55,36,29,55,41,53,39,58,54,50,45,58,56,34,27,42,60,42,48,56,26,46,46,51,39,60,43,34,46,32,38,34,32,53,38,44,35,33,47,33,40,36,37,44,36,23,37,32,36,49,11,24,32,29,37,29,35,29,32,50,18,34,54,46,34,50,48,39,38,42,SampleRate:500/TimeStamp(20)/TimeStamp(120)/Beep_Pulse(242)/TimeStamp(220)/TimeStamp(320)/TimeStamp(420)/HeartBeat_Dominant(228)
2004-09-15 08:13:35,43,44,50,46,58,45,66,55,67,42,55,46,46,60,48,39,63,83,73,63,69,56,77,66,41,37,52,58,65,59,66,50,58,66,46,53,56,53,46,42,46,44,52,26,35,35,37,30,32,42,39,29,30,29,29,36,27,42,18,26,25,21,18,32,24,22,32,31,6,31,31,34,29,37,42,36,29,17,28,33,39,43,26,34,40,30,20,44,31,14,19,28,36,38,30,39,4,19,23,42,45,78,97,141,184,238,252,311,361,391,416,430,437,444,427,421,397,362,311,280,237,173,153,126,112,62,62,44,46,43,47,30,28,8,5,0,-1,9,-1,-1,-9,-3,0,-6,-15,-10,-18,-19,-6,-8,-14,-7,-19,-14,-13,-17,-6,-8,6,-12,1,-15,-8,-13,-6,3,-13,-10,-18,-3,-1,-3,3,-4,-16,1,6,21,-12,3,2,11,5,0,11,0,-1,11,6,20,14,3,-5,8,2,12,0,25,8,23,8,24,4,-3,12,11,4,28,12,29,23,22,14,25,22,13,36,27,33,20,29,19,26,21,17,17,17,13,22,31,22,25,19,21,38,23,18,33,24,6,41,26,15,42,27,24,14,21,43,13,22,32,12,29,33,28,45,30,21,32,21,35,33,33,41,45,19,26,44,54,48,49,45,46,29,57,32,49,38,41,65,37,45,50,53,62,38,65,45,71,59,49,76,65,58,56,57,37,78,57,62,49,45,48,49,55,51,59,42,62,61,41,37,45,53,47,45,43,47,59,45,51,60,43,51,27,36,38,43,58,39,48,39,41,50,38,33,29,39,44,20,44,35,31,33,44,47,47,46,27,52,60,54,61,39,57,41,37,73,29,57,41,47,50,52,49,48,45,37,39,49,40,34,43,66,44,37,40,47,33,48,47,45,50,37,48,46,62,47,63,63,52,35,46,40,67,72,55,79,77,71,63,56,51,53,56,66,71,66,47,61,50,60,52,43,43,48,53,40,39,20,28,27,21,18,17,22,26,21,20,7,17,9,4,12,38,12,18,13,19,29,7,5,3,9,9,17,12,13,14,1,26,16,3,14,31,39,17,27,30,31,36,20,23,13,25,29,19,13,16,13,18,7,21,20,26,7,22,1,34,51,76,127,163,195,246,302,362,372,396,418,430,433,424,404,399,374,323,279,251,SampleRate:500/TimeStamp(20)/Beep_Pulse(120)/TimeStamp(120)/TimeStamp(220)/TimeStamp(320)/TimeStamp(420)/HeartBeat_Dominant(106)/HeartBeat_Dominant(483)
2004-09-15 08:13:36,210,182,154,111,72,65,63,61,42,40,33,12,33,11,16,6,-5,-14,13,13,12,-2,6,-1,-6,13,-18,0,-2,-5,-17,-16,-2,-3,-15,3,-9,7,5,-14,-14,4,-16,7,8,9,-7,-5,1,-6,6,-2,-3,-15,6,2,-1,11,6,0,19,8,2,3,15,12,-4,2,25,13,19,15,10,6,15,21,9,6,16,17,8,5,24,12,13,16,10,12,4,10,18,35,15,19,32,21,11,12,10,10,14,6,23,18,28,18,26,22,23,28,26,20,23,25,15,40,41,27,20,43,40,16,31,17,34,41,64,39,32,27,46,26,17,37,27,42,48,39,42,38,38,34,51,39,44,62,45,38,47,37,32,36,50,41,48,51,63,48,70,62,51,73,55,70,53,57,69,69,69,54,54,68,76,39,55,57,55,44,57,59,59,55,54,65,53,48,61,46,60,54,40,53,61,53,51,51,61,28,45,42,46,59,46,48,52,60,45,62,34,45,42,35,47,44,25,30,45,56,57,45,42,38,55,60,49,52,46,48,59,40,39,39,30,29,56,32,45,58,39,57,43,48,39,53,60,54,47,32,40,50,34,58,43,42,53,52,31,59,52,55,48,53,55,49,33,52,62,58,56,52,46,53,38,77,69,66,68,80,79,83,76,84,55,71,62,64,42,58,51,44,63,73,54,59,54,66,39,47,33,41,30,42,42,31,47,34,33,22,37,24,27,12,28,20,33,22,40,31,18,27,26,37,35,21,25,44,29,38,36,39,11,25,32,21,20,32,32,31,8,38,49,29,24,35,41,26,14,33,53,27,29,26,33,31,28,29,16,28,17,42,66,96,109,166,212,252,308,338,395,422,433,435,446,412,401,406,361,309,293,233,210,171,134,102,84,58,65,71,51,42,50,18,43,15,5,-7,0,-17,-10,8,-1,-7,-1,-11,12,-27,-9,-17,-5,-10,-9,-11,-10,-28,-19,-10,-13,-10,-9,-3,-8,-3,-2,-13,-19,-4,16,25,-3,-5,-5,-7,-6,8,2,9,4,1,-9,-2,-13,1,-7,2,6,-11,-14,23,-13,6,17,8,4,0,-4,-12,28,8,37,11,-2,0,10,4,17,7,20,20,37,30,31,30,16,6,30,20,34,19,12,20,13,26,19,40,18,47,32,34,32,23,41,33,26,44,16,28,37,23,40,38,SampleRate:500/Beep_Pulse(0)/TimeStamp(20)/TimeStamp(120)/TimeStamp(220)/Beep_Pulse(380)/TimeStamp(320)/TimeStamp(420)/HeartBeat_Dominant(366)
2004-09-15 08:13:37,25,40,17,23,32,32,42,50,34,45,51,31,27,37,42,31,43,39,30,25,43,44,28,38,27,43,30,54,34,42,47,46,35,62,44,37,52,69,58,67,66,63,67,58,65,71,71,66,68,61,73,72,63,68,61,78,70,78,75,80,62,50,66,67,59,53,55,49,49,53,67,46,49,61,62,46,67,49,51,44,55,47,58,56,54,58,46,51,53,56,52,56,55,47,63,50,48,37,60,55,41,50,51,51,50,62,53,59,43,62,47,49,45,33,57,38,35,44,64,57,44,54,50,44,38,42,42,34,51,58,66,43,29,75,53,46,62,54,44,57,42,46,66,46,68,55,49,51,70,51,63,77,70,72,70,71,78,81,83,63,94,68,88,72,65,62,50,57,65,63,72,84,80,62,54,58,65,65,51,55,49,34,59,43,33,36,51,44,33,42,31,31,51,30,57,29,41,45,45,41,31,34,47,30,40,24,28,19,31,33,38,21,33,37,29,27,24,39,27,30,33,37,24,21,21,15,47,33,26,29,53,28,30,38,18,24,25,29,28,43,46,66,118,137,189,254,329,360,403,430,464,457,469,463,446,425,396,366,338,273,232,204,131,120,106,88,74,91,49,43,62,31,34,25,14,3,-8,-1,-15,-2,-1,5,-4,-3,-6,1,-10,5,-5,5,12,-7,-18,-6,-17,-8,-2,-4,-9,-3,-4,21,-4,-18,-22,2,-26,-12,8,-23,-3,-5,8,-15,-14,-17,-18,-6,-7,16,5,-11,-10,-14,-1,13,16,10,6,-7,-2,18,7,1,10,4,22,4,23,-1,18,-5,5,8,12,11,18,9,7,10,11,4,8,11,2,12,16,9,17,7,8,12,2,19,28,15,25,26,16,24,21,23,26,16,27,21,15,25,10,25,26,16,11,28,18,26,31,16,37,19,29,24,21,10,55,14,40,37,25,29,27,10,20,56,28,35,22,52,38,40,39,22,41,28,40,35,49,64,65,68,61,43,64,51,47,48,66,53,58,65,66,48,51,73,70,63,59,59,50,39,61,67,62,59,41,42,34,40,40,47,27,50,32,35,51,39,62,25,27,47,45,44,42,43,45,49,35,53,58,48,41,35,55,53,30,32,31,54,38,43,18,32,56,30,31,33,36,22,36,37,32,42,27,34,28,23,18,35,22,33,SampleRate:500/TimeStamp(20)/TimeStamp(120)/Beep_Pulse(260)/TimeStamp(220)/TimeStamp(320)/TimeStamp(420)/HeartBeat_Dominant(246)
2004-09-15 08:13:38,29,30,31,28,29,20,33,35,36,32,53,29,26,22,33,21,28,33,37,45,29,44,50,55,30,40,43,48,48,52,70,50,50,40,51,49,61,58,59,64,58,54,82,49,45,57,66,49,46,57,52,59,53,59,52,43,25,34,45,43,43,32,25,32,12,26,22,28,31,22,21,12,5,13,24,22,15,5,4,2,6,7,-3,13,7,4,2,25,22,9,7,1,21,11,4,19,20,6,7,20,22,15,8,2,10,33,6,12,9,1,-2,14,7,26,24,-4,-1,-2,5,15,6,25,41,73,97,150,194,256,283,337,379,403,417,423,427,419,400,390,340,307,270,223,172,141,112,86,91,68,46,46,47,42,7,28,9,19,-3,6,15,-8,-6,2,-27,-8,-14,-4,-18,-19,-13,3,-21,-29,-19,-26,-24,-29,-10,-33,-15,-17,-7,-12,-11,-21,-5,-31,-14,-9,-6,-14,-4,-5,2,-24,-18,-6,-13,-12,3,-20,8,8,-19,-5,-9,-4,6,7,0,-8,-3,-9,-6,-17,8,0,-6,4,-4,-5,-4,12,10,1,-11,-24,-9,13,-1,16,18,-9,4,-2,22,24,13,12,9,9,6,22,3,5,9,8,13,11,27,16,9,19,13,18,10,18,24,38,5,11,24,36,34,8,23,5,16,14,27,34,41,21,22,39,28,10,20,25,38,31,27,19,20,22,25,39,38,36,19,50,24,32,30,29,42,55,49,49,38,35,38,51,48,62,48,54,57,57,62,58,52,51,42,47,41,47,50,49,67,41,56,37,52,53,39,36,44,38,54,44,62,38,46,41,52,33,46,45,47,33,52,40,44,33,58,43,47,49,47,22,32,29,43,18,47,40,48,49,43,30,47,30,50,37,24,31,35,39,22,45,38,33,40,26,27,41,27,33,43,4,40,43,49,17,46,35,34,40,38,63,33,11,11,27,37,29,33,21,37,19,34,47,50,59,32,44,63,31,47,45,53,46,45,46,44,59,46,45,65,68,74,69,71,67,58,55,49,39,50,61,59,52,61,67,64,40,69,36,61,30,38,37,30,35,27,14,21,2,20,13,31,35,28,23,22,17,12,18,22,8,18,9,18,11,9,10,29,12,15,39,29,13,32,31,9,26,26,24,18,17,31,30,17,7,41,30,29,24,25,8,23,9,13,23,9,28,20,16,3,1,SampleRate:500/TimeStamp(20)/Beep_Pulse(142)/TimeStamp(120)/TimeStamp(220)/TimeStamp(320)/TimeStamp(420)/HeartBeat_Dominant(129)
2004-09-15 08:13:39,20,27,33,43,81,111,173,202,250,309,347,377,405,413,414,420,408,412,369,373,317,272,222,190,152,119,99,66,62,59,51,20,23,42,11,20,11,5,-11,-12,-3,-11,-19,-2,-18,-22,-6,-19,-20,-25,-14,-30,-20,9,-12,-10,-32,-12,-17,-17,-17,-19,-19,-17,-6,-5,-19,-11,-8,-32,-8,-13,-11,7,-13,-12,1,-10,-10,-7,-6,11,-8,-6,8,10,-11,9,-1,-4,-8,-3,3,13,18,5,19,3,18,4,4,-11,-1,13,16,24,20,-4,21,4,-3,6,16,1,25,14,18,24,-2,6,5,18,23,-5,33,38,30,26,12,19,8,8,18,26,4,6,18,26,23,25,12,31,25,18,14,32,31,13,50,35,41,21,26,43,31,21,8,20,38,29,35,35,41,43,39,31,42,29,28,35,33,61,39,40,38,55,43,39,55,39,49,41,39,58,46,33,60,54,60,64,60,47,48,63,54,50,54,57,59,49,41,55,55,54,60,49,45,56,36,69,50,48,43,40,69,38,51,36,36,52,33,45,48,59,47,40,36,35,47,45,48,41,40,44,47,42,41,38,32,37,42,35,20,24,52,42,56,45,42,51,23,46,44,41,30,38,30,48,47,35,27,46,17,35,48,46,54,35,39,35,40,34,37,44,34,49,36,21,48,40,42,39,33,48,39,53,56,58,49,48,68,62,73,65,62,51,66,65,63,70,80,84,76,77,59,58,54,51,64,62,56,61,55,73,61,49,64,71,58,58,48,54,38,34,29,47,28,38,29,31,27,14,29,20,20,22,27,13,22,1,35,29,23,6,23,28,9,5,41,19,24,17,24,25,38,46,11,34,37,14,48,10,10,14,23,21,20,18,19,31,13,16,9,27,24,10,19,10,1,15,1,12,15,20,47,80,124,174,227,279,318,365,390,412,409,429,420,423,397,379,361,299,268,222,176,148,112,108,65,72,59,38,34,19,36,50,7,15,-1,-14,-4,-15,-25,-1,-23,-19,-23,-18,-21,-26,-13,-38,-2,-17,-19,-23,-21,-31,-15,-17,-16,-29,-30,1,-26,-15,-26,-20,-23,-27,-12,-8,-25,-19,-7,-21,-13,1,-21,-10,-18,-23,-13,3,-13,-17,-13,-14,-8,-24,-10,-9,-6,-18,-14,-2,-13,-5,10,12,-5,8,15,8,4,15,23,2,21,11,6,-8,5,1,4,7,17,2,1,-1,SampleRate:500/Beep_Pulse(22)/TimeStamp(20)/TimeStamp(120)/TimeStamp(220)/Beep_Pulse(404)/TimeStamp(320)/TimeStamp(420)/HeartBeat_Dominant(6)/HeartBeat_Dominant(388)
2004-09-15 08:13:40,14,-7,-11,12,27,8,6,18,2,-6,-7,3,26,15,21,3,9,20,8,22,-4,24,15,-1,40,25,26,24,3,24,17,15,10,15,23,22,18,30,17,18,12,25,14,20,19,28,31,23,28,20,39,32,50,34,36,38,29,34,49,37,51,37,44,41,37,47,51,45,55,62,55,50,60,35,52,48,57,54,61,64,47,43,46,56,37,39,53,58,48,55,54,38,44,33,48,38,53,40,45,40,53,39,44,31,47,46,37,41,45,35,24,48,47,37,45,47,37,58,46,53,39,48,50,42,27,43,43,42,42,49,41,31,46,32,45,46,62,44,41,36,45,26,30,40,43,42,38,46,28,45,43,46,44,44,48,40,40,50,39,37,51,33,67,56,49,61,57,58,60,60,61,60,49,58,51,67,64,69,62,66,79,74,78,83,72,70,62,67,55,71,68,79,62,72,77,52,66,83,59,53,52,53,64,45,48,47,33,32,57,42,26,34,33,29,34,36,14,20,14,41,41,28,30,24,34,28,14,44,29,29,28,35,15,22,28,23,41,33,33,46,18,33,33,43,22,17,23,27,47,33,32,37,25,34,31,52,35,21,21,13,31,24,36,53,61,101,153,195,267,303,363,398,408,449,474,457,469,464,420,417,379,323,269,242,185,152,122,115,106,109,83,67,60,53,67,46,35,35,21,28,31,17,-2,5,11,4,19,14,3,3,14,12,28,10,1,-7,13,-7,7,5,26,8,21,13,8,17,19,12,25,3,6,13,23,28,21,19,11,6,25,6,13,-5,16,10,18,6,19,17,14,27,17,27,17,17,14,10,30,28,11,25,25,27,28,13,33,28,49,25,31,30,51,29,38,25,38,32,43,27,38,35,37,35,24,49,40,44,35,24,22,31,46,41,48,36,52,35,28,39,46,49,46,30,34,44,35,24,43,21,35,48,51,47,59,20,31,54,40,41,39,41,48,54,39,43,60,41,41,61,62,55,43,71,58,50,60,59,62,55,56,52,76,60,74,58,82,71,73,81,90,78,66,74,91,88,95,65,85,82,82,69,72,79,60,77,64,68,78,66,82,79,74,75,58,64,70,50,75,71,78,70,57,67,77,55,68,63,68,60,67,56,62,57,63,50,60,64,66,44,51,62,SampleRate:500/TimeStamp(20)/TimeStamp(120)/Beep_Pulse(284)/TimeStamp(220)/TimeStamp(320)/TimeStamp(420)/HeartBeat_Dominant(268)
2004-09-15 08:13:41,51,66,53,64,48,51,49,55,61,56,61,43,51,37,44,34,53,56,66,70,39,53,47,59,40,38,59,54,51,53,40,34,58,25,45,61,49,44,48,41,36,30,45,50,50,62,51,77,74,72,75,68,76,72,84,77,88,71,69,86,69,72,87,81,94,70,85,93,70,78,63,74,44,66,51,60,55,67,66,74,63,60,63,55,59,65,40,38,41,36,40,43,36,35,37,20,23,40,31,31,35,27,44,19,18,28,17,26,30,32,30,21,22,21,22,23,27,8,33,36,25,23,13,26,30,22,28,26,29,35,29,36,39,20,33,27,25,27,23,10,13,4,14,16,31,39,76,109,149,202,257,301,347,382,422,445,450,444,434,407,398,363,317,283,254,217,177,153,110,90,84,55,64,55,52,27,42,18,4,3,2,-8,-7,5,-11,-4,-9,-16,-6,-16,-1,-7,-11,-10,-17,-7,16,-16,-1,3,-6,-18,-21,-30,-13,-5,-30,-9,-19,-11,-25,-12,-13,-14,-27,11,6,1,1,1,3,13,-6,-7,25,-2,11,13,10,11,0,0,4,1,22,-5,13,16,4,12,3,18,11,17,9,24,4,8,6,10,15,5,6,3,20,14,14,17,11,3,16,13,3,15,15,19,32,18,4,2,9,5,10,8,5,27,29,33,16,21,17,33,17,26,6,21,25,45,17,18,28,40,27,21,26,27,46,26,44,31,22,49,32,22,37,24,46,32,49,50,47,35,68,45,47,50,32,34,48,60,44,44,61,62,57,57,50,56,63,73,62,47,61,74,58,52,66,70,62,70,71,49,50,54,70,69,66,53,49,47,50,50,66,41,51,51,59,54,64,45,56,58,39,55,66,57,58,49,68,41,46,42,41,40,31,53,57,43,45,31,45,38,44,49,48,43,46,44,54,52,34,45,43,41,49,36,25,51,44,48,41,35,37,42,45,29,38,30,42,50,16,26,42,25,49,47,41,40,29,31,45,35,38,41,29,44,32,30,53,64,42,53,48,42,61,52,46,51,35,47,46,55,65,45,50,44,64,50,37,60,52,28,46,38,45,62,56,41,47,61,63,56,43,39,29,35,48,18,-1,4,6,16,7,24,18,5,14,13,3,4,10,3,10,5,19,16,9,11,-1,12,7,10,13,-9,13,16,18,22,20,19,SampleRate:500/TimeStamp(20)/Beep_Pulse(164)/TimeStamp(120)/TimeStamp(220)/TimeStamp(320)/TimeStamp(420)/HeartBeat_Dominant(151)
2004-09-15 08:13:42,2,2,-4,9,6,19,2,23,19,-7,17,10,-1,13,4,15,-2,12,-1,13,-21,-6,9,-3,4,13,22,50,79,133,175,196,266,313,356,397,409,414,436,414,424,389,365,340,282,250,218,172,146,113,98,66,68,38,40,53,26,18,39,24,11,12,-2,7,-2,-12,-13,2,-11,-7,-24,-21,-22,-28,-11,-15,-9,-23,-4,-15,-14,-24,-35,-30,-31,4,-18,-12,5,-29,-22,-28,-9,-25,-2,-6,-9,-2,-9,-5,-7,-2,-20,-15,4,-14,2,-5,-20,-4,7,-1,7,-19,-20,-3,-19,4,5,-24,-1,-23,-12,-10,-5,11,-3,-3,8,0,6,-17,-6,-1,-9,12,14,13,4,3,-6,-6,12,3,7,4,2,5,-9,12,-2,-2,1,2,3,8,4,2,18,-10,6,9,19,13,23,17,15,4,10,13,16,1,17,14,20,10,25,25,22,11,25,23,28,28,23,25,10,25,35,32,31,21,26,34,23,38,31,49,57,32,34,39,43,44,20,33,51,52,48,48,36,38,51,37,32,68,42,52,43,46,48,48,30,49,45,44,35,41,59,41,59,44,50,32,43,47,33,44,64,41,37,35,43,41,35,43,37,45,35,27,52,52,47,46,43,31,35,37,46,40,51,33,30,38,29,32,45,48,38,41,35,39,16,30,35,36,35,23,15,33,35,38,24,33,29,43,24,38,25,13,28,33,24,35,8,30,11,27,32,31,24,52,38,30,44,36,30,38,47,44,35,44,55,44,35,36,44,62,55,68,71,57,67,74,50,55,57,53,57,49,61,50,52,55,43,39,64,30,53,54,47,37,30,39,42,43,28,30,44,25,26,15,15,17,32,24,31,18,19,10,12,-3,7,16,1,15,34,3,20,19,7,9,7,25,4,16,5,10,16,-12,25,-2,12,22,24,24,17,0,8,17,20,30,10,12,20,19,6,5,18,-2,15,7,-2,16,19,36,50,108,148,189,253,283,330,378,380,415,422,414,411,398,400,369,331,274,238,209,153,145,107,85,66,50,32,49,27,33,7,3,12,-4,-7,-2,-11,2,0,-18,-21,-16,-25,-14,-21,-8,-30,-20,-27,-16,-12,-15,-15,-7,-26,-9,-27,-36,-8,-18,-21,-17,-12,-32,-12,-25,-11,-2,-23,-16,-11,4,-14,1,-11,-8,-24,-10,-14,-7,2,-10,-8,-6,-14,-33,-8,-29,-18,-1,-2,-6,-5,17,SampleRate:500/Beep_Pulse(46)/TimeStamp(20)/TimeStamp(120)/TimeStamp(220)/TimeStamp(320)/Beep_Pulse(424)/TimeStamp(420)/HeartBeat_Dominant(34)/HeartBeat_Dominant(416)
2004-09-15 08:13:43,4,5,-2,-4,-4,-4,3,7,3,4,1,-5,-1,-8,8,17,4,2,4,-12,12,6,4,-1,17,10,-10,-7,-11,7,6,4,-8,20,7,14,9,24,9,14,11,7,4,12,-4,1,12,26,25,6,30,27,29,16,5,14,10,30,22,24,26,29,19,3,3,32,36,34,28,19,20,17,27,42,25,55,27,24,28,29,54,36,45,32,50,43,61,46,47,55,36,39,49,47,39,55,38,35,35,37,34,52,50,51,48,30,51,51,36,42,48,42,48,50,42,43,60,44,46,28,40,37,52,31,38,48,43,54,39,41,33,27,29,45,27,44,40,61,42,56,25,41,31,33,33,25,29,42,28,47,51,23,37,41,35,31,8,27,39,35,38,6,16,23,31,35,32,31,30,25,22,43,24,29,36,48,54,57,30,33,38,39,40,39,50,51,47,27,34,28,42,64,32,47,34,55,47,59,51,61,63,50,65,70,61,61,52,61,55,34,59,41,41,67,68,61,44,53,45,45,34,39,36,25,16,13,30,23,16,15,19,15,9,10,-5,22,6,17,9,9,9,-1,-2,14,-10,-5,13,15,0,33,22,19,7,14,14,21,2,7,7,8,12,9,7,7,9,14,6,9,5,17,23,1,12,8,19,22,12,7,-4,3,-8,-14,-5,20,35,68,82,154,195,243,295,339,380,423,423,438,429,407,412,391,358,318,280,238,181,169,129,108,77,53,51,41,30,25,19,22,10,7,2,-11,-13,-28,-19,-25,-16,-8,-22,-38,-4,-26,-21,-26,-11,-26,-7,-22,-3,2,-18,-36,-28,-29,-44,-21,-29,-14,-28,-13,-20,-12,-27,-16,-16,-23,-13,-7,-10,-13,-7,-14,-17,-6,-11,0,-24,-5,-27,-11,-3,5,-2,-7,1,-7,2,19,1,11,6,13,-8,13,1,8,-9,-9,-8,1,3,23,-2,-2,-6,3,10,16,13,9,13,30,10,3,11,10,32,24,23,21,19,12,35,25,18,2,8,29,39,9,33,18,13,6,15,36,46,21,27,38,17,15,20,33,10,28,32,17,30,29,43,23,30,19,21,35,27,41,47,48,23,40,49,44,51,46,55,48,43,30,35,27,33,38,61,55,59,47,53,67,58,52,61,61,32,64,59,55,55,52,51,45,52,53,30,53,59,37,70,59,52,52,52,57,51,42,47,46,37,61,27,57,SampleRate:500/TimeStamp(20)/TimeStamp(120)/Beep_Pulse(304)/TimeStamp(220)/TimeStamp(320)/TimeStamp(420)/HeartBeat_Dominant(294)
